t,leadI,leadII,leadIII,aVR,aVL,aVF
0,1.151590109693,0.129702774249452,-1.02188733544355,-0.640646441971228,1.08673872256828,-0.44609228059705
0.00216122757726389,-1.33841866603132,0.562899577132598,1.90131824316391,0.387759544449359,-1.61986845459761,1.23210891014826
0.00432245515452777,-3.41203985113325,0.908898723129234,4.32093857426248,1.25157056400201,-3.86648921269787,2.61491864869586
0.00648368273179166,-5.22462734469829,1.08685129689107,6.31147864158936,2.06888802390361,-5.76805299314383,3.69916496924021
0.00864491030905554,-6.90967072948698,1.08769153404264,7.99736226352962,2.91098959772217,-7.4535164965083,4.54252689878613
0.0108061378863194,-8.44483754994888,0.963866050772324,9.4087036007212,3.74048574958828,-8.92677057533504,5.18628482574676
0.0129673654635833,-9.66946148026174,0.803077674853988,10.4725391551157,4.43319190270388,-10.0710003176887,5.63780841498486
0.0151285930408472,-10.3807209942925,0.694208769929596,11.0749297642221,4.84325611218144,-10.7278253792573,5.88456926707584
0.0172898206181111,-10.437893585557,0.696530427831374,11.1344240133884,4.87068157886281,-10.7861587994727,5.91547722060987
0.019451048195375,-9.84711090172919,0.828669637359326,10.6757805390885,4.50922063218493,-10.2614457204089,5.75222508822392
0.0216122757726389,-8.80592034960835,1.0782887572571,9.88420910686545,3.86381579617562,-9.3450647282369,5.48124893206128
0.0237735033499027,-7.65903426834061,1.41318694665218,9.07222121499279,3.12292366084422,-8.3656277416667,5.24270408082248
0.0259347309271666,-6.76133941932536,1.78293100843402,8.54427042775938,2.48920420544567,-7.65280492354237,5.1636007180967
0.0280959585044305,-6.33288666370841,2.11384178790486,8.44672845161327,2.10952243790177,-7.38980755766084,5.28028511975907
0.0302571860816944,-6.39014098259601,2.31923346386458,8.70937444646059,2.03545375936572,-7.5497577145283,5.51430395516258
0.0324184136589583,-6.76601434353391,2.34799318420199,9.1140075277359,2.20901057966596,-7.9400109356349,5.73100035596894
0.0345796412362222,-7.20463339179028,2.21405585620789,9.41868924799817,2.4952887677912,-8.31166131989422,5.81637255210303
0.0367408688134861,-7.48925235682408,1.9529231471781,9.44217550400218,2.76816460482299,-8.46571393041313,5.69754932559014
0.03890209639075,-7.52241317266879,1.59732814518354,9.11974131785233,2.96254251374262,-8.32107724526056,5.35853473151794
0.0410633239680138,-7.31648426990643,1.20999019543173,8.52647446533815,3.05324703723735,-7.92147936762229,4.86823233038494
0.0432245515452777,-6.92668626199493,0.872096369289295,7.79878263128423,3.02729494635282,-7.36273444663958,4.33543950028676
0.0453857791225416,-6.40892439039759,0.639522711729433,7.04844710212702,2.88470083933408,-6.7286857462623,3.84398490692823
0.0475470066998055,-5.851000742862,0.530121280878245,6.38112202374024,2.66043973099188,-6.11606138330112,3.45562165230924
0.0497082342770694,-5.40785899054541,0.515080620635493,5.9229396111809,2.44638918495496,-5.66539930086315,3.2190101159082
0.0518694618543333,-5.25703117284907,0.524602714106155,5.78163388695522,2.36621422937146,-5.51933252990215,3.15311830053069
0.0540306894315971,-5.50260361305361,0.492855669887839,5.99545928294145,2.50487397158288,-5.74903144799753,3.24415747641464
0.056191917008861,-6.10244716451162,0.400456161067662,6.50290332557928,2.85099550172198,-6.30267524504545,3.45167974332347
0.0583531445861249,-6.85335213277169,0.278195910164002,7.13154804293569,3.28757811130384,-6.99245008785369,3.70487197654985
0.0605143721633888,-7.44446321631837,0.173547683911726,7.61801090023009,3.63545776620332,-7.53123705827423,3.89577929207091
0.0626755997406527,-7.58290105118721,0.113204925096531,7.69610597628374,3.73484806304534,-7.63950351373547,3.90465545069013
0.0648368273179166,-7.14416101500075,0.0936336335136456,7.23779464851439,3.52526369074355,-7.19097783175757,3.66571414101402
0.0669980548951805,-6.24570902281931,0.0864400711073108,6.33214909392662,3.079634475856,-6.28892905837297,3.20929458251697
0.0691592824724444,-5.20526699748831,0.0585511040258124,5.26381810151412,2.57335794673125,-5.23454254950122,2.66118460276997
0.0713205100497082,-4.43235151490376,0.00856727148959724,4.44091878639335,2.21189212170708,-4.43663515064856,2.22474302894148
0.0734817376269721,-4.28747199991824,-0.036616221478794,4.25085577843944,2.16204411069852,-4.26916388917884,2.10711977848033
0.075642965204236,-4.94268207881787,-0.064589384688972,4.8780926941289,2.50363573175342,-4.91038738647338,2.40675165471996
0.0778041927814999,-6.30423229283335,-0.0857401505091744,6.21849214232417,3.19498622167126,-6.26136221757876,3.0663759959075
0.0799654203587638,-8.02606776154531,-0.113396297174885,7.91267146437042,4.06973202936009,-7.96936961295786,3.89963758359777
0.0821266479360277,-9.61052756986903,-0.161422933550215,9.44910463631882,4.88597525170962,-9.52981610309393,4.6438408513843
0.0842878755132915,-10.5762238922799,-0.235524871832628,10.3406990204473,5.40587438205626,-10.4584614563636,5.05258707430732
0.0864491030905554,-10.6204067332441,-0.306177236848621,10.3142294963955,5.46329198504637,-10.4673181148198,5.00402612977344
0.0886103306678193,-9.69630390400113,-0.309671539937311,9.38663236406382,5.00298772196922,-9.54146813403247,4.53848041206325
0.0907715582450832,-8.00557718671759,-0.191238269485873,7.81433891723171,4.09840772810173,-7.90995805197465,3.81155032387292
0.0929327858223471,-5.92761221107862,0.0519425777282949,5.97955478880692,2.93783481667516,-5.95358349994277,3.01574868326761
0.095094013399611,-3.89428179458645,0.365165397959248,4.2594471925457,1.7645581983136,-4.07686449356607,2.31230629525247
0.0972552409768749,-2.26268701652387,0.673809257705396,2.93649627422927,0.794438879409237,-2.59959164537657,1.80515276596733
0.0994164685541388,-1.22806399205206,0.921461179431603,2.14952517148366,0.153301406310227,-1.68879458176786,1.53549317545763
0.101577696131403,-0.778039168842639,1.07332821537315,1.85136738421579,-0.147644523265255,-1.31470327652921,1.46234779979447
0.103738923708667,-0.724305407711284,1.12388382754048,1.84818923525176,-0.199789209914597,-1.28624732148152,1.48603653139612
0.10590015128593,-0.833614874665756,1.11711813997438,1.95073301464013,-0.14175163265431,-1.39217394465294,1.53392557730725
0.108061378863194,-0.965196765924986,1.12195782522502,2.08715459115,-0.0783805296500151,-1.52617567853749,1.60455620818751
0.110222606440458,-1.09704499225222,1.17168734336844,2.26873233562066,-0.0373211755581095,-1.68288866393644,1.72020983949455
0.112383834017722,-1.23525968175105,1.24416831285054,2.47942799460159,-0.00445431554974918,-1.85734383817632,1.86179815372607
0.114545061594986,-1.30465747446881,1.29804253689855,2.60270001136737,0.00330746878512844,-1.95367874291809,1.95037127413296
0.11670628917225,-1.12311541081363,1.31370108270049,2.43681649351411,-0.0952928359434317,-1.77996595216387,1.8752587881073
0.118867516749514,-0.485040301223677,1.31194486692762,1.79698516815129,-0.41345228285197,-1.14101273468748,1.55446501753945
0.121028744326778,0.702592076922471,1.32830546626232,0.625713389339849,-1.0154487715924,0.0384393437913109,0.977009427801085
0.123189971904042,2.33459737100873,1.35403044394763,-0.980566927061093,-1.84431390747818,1.65758214903491,0.18673175844327
0.125351199481305,4.15413564496696,1.34048259079245,-2.8136530541745,-2.7473091178797,3.48389434957073,-0.736585231691025
0.127512427058569,5.90417087304812,1.26748233673453,-4.63668853631358,-3.58582660489133,5.27042970468085,-1.68460309978952
0.129673654635833,7.45623412614088,1.15678566581453,-6.29944846032635,-4.30650989597771,6.87784129323362,-2.57133139725591
0.131834882213097,8.82430406087802,1.02037373502452,-7.8039303258535,-4.92233889795127,8.31411719336576,-3.39177829541449
0.133996109790361,10.085977141255,0.84111364154043,-9.24486349971454,-5.4635453913977,9.66542032048476,-4.20187492908706
0.136157337367625,11.2881458961608,0.614226748429921,-10.6739191477309,-5.95118632229537,10.9810325219459,-5.02984619965049
0.138318564944889,12.3925471120249,0.374889118848065,-12.0176579931768,-6.38371811543646,12.2051025526008,-5.82138443716436
0.140479792522153,13.2828947273007,0.176703286777345,-13.1061914405234,-6.72979900703903,13.194543083912,-6.46474407687301
0.142641020099416,13.8252992094231,0.0645172405196166,-13.7607819689034,-6.94490822497134,13.7930405891633,-6.84813236419192
0.14480224767668,13.9265016064622,0.066720360988449,-13.8597812454737,-6.99661098372531,13.893141425968,-6.89653044224264
0.146963475253944,13.5475239760056,0.186394350590676,-13.3611296254149,-6.86695916329813,13.4543268007102,-6.58736763741211
0.149124702831208,12.7087387125598,0.377932509241078,-12.3308062033187,-6.54333561090044,12.5197724579393,-5.97643684703882
0.151285930408472,11.5292901437722,0.555630075534971,-10.9736600682372,-6.04246010965357,11.2514751060047,-5.20901499635112
0.153447157985736,10.2455955469784,0.654883007804491,-9.59071253917386,-5.45023927739142,9.91815404307611,-4.46791476568468
0.155608385563,9.12326003265139,0.670684842903161,-8.45257518974823,-4.89697243777727,8.78791761119981,-3.89094517342253
0.157769613140264,8.31997990381379,0.631593765635391,-7.6883861381784,-4.47578683472459,8.00418302099609,-3.5283961862715
0.159930840717528,7.81403134539963,0.567910012009754,-7.24612133338987,-4.19097067870469,7.53007633939475,-3.33910566069006
0.162092068294791,7.40535483395129,0.513090935119982,-6.89226389883131,-3.95922288453564,7.1488093663913,-3.18958648185566
0.164253295872055,6.78547186269775,0.495867038062364,-6.28960482463539,-3.64066945038006,6.53753834366657,-2.89686889328651
0.166414523449319,5.68451084105332,0.509153726244886,-5.17535711480844,-3.09683228364911,5.42993397793088,-2.33310169428178
0.168575751026583,4.01239685660705,0.517411371221296,-3.49498548538576,-2.26490411391418,3.75369117099641,-1.48878705708223
0.170736978603847,1.89109205619067,0.508323953017023,-1.38276810317365,-1.19970800460385,1.63693007968216,-0.437222075078313
0.172898206181111,-0.427221652178417,0.509504631149989,0.936726283328406,-0.0411414894857858,-0.681973967753412,0.723115457239198
0.175059433758375,-2.68275459610959,0.547652657419139,3.23040725352873,1.06755096934523,-2.95658092481916,1.88902995547393
0.177220661335639,-4.70761646980749,0.612504852608239,5.32012132241573,2.04755580859963,-5.01386889611161,2.96631308751198
0.179381888912903,-6.48577592819517,0.653690422445824,7.13946635064099,2.91604275287467,-6.81262113941808,3.89657838654341
0.181543116490166,-8.16808558404593,0.605939918350379,8.77402550239631,3.78107283284777,-8.47105554322112,4.68998271037334
0.18370434406743,-10.0145638891015,0.457043416313965,10.4716073054154,4.77876023639375,-10.2430855972584,5.4643253608647
0.185865571644694,-12.2593892963227,0.280983278959832,12.5403725752825,5.98920300868142,-12.3998809358026,6.41067792712117
0.188026799221958,-14.9682132789312,0.161622331376648,15.1298356103079,7.40329547377728,-15.0490244446195,7.64572897084225
0.190188026799222,-17.9715522311586,0.11826316219007,18.0898153933487,8.92664453448426,-18.0306838122536,9.10403927776937
0.192349254376486,-20.8893315823295,0.115027289192509,21.004358871522,10.3871521465685,-20.9468452269258,10.5596930803573
0.19451048195375,-23.2264646965593,0.0950214428638005,23.3214861394231,11.5657216268478,-23.2739754179912,11.7082537911435
0.196671709531014,-24.5228433676859,0.0178009163481332,24.540644284034,12.2525212256689,-24.5317438258599,12.2792226001911
0.198832937108278,-24.5085773881565,-0.096965264934326,24.4116121232222,12.3027713265454,-24.4600947556893,12.1573234291439
0.200994164685541,-23.2004841842043,-0.175304252784129,23.0251799314201,11.6878942184942,-23.1128320578122,11.424937839318
0.203155392262805,-20.8904578018415,-0.157002535665715,20.7334552661758,10.5237301687536,-20.8119565340087,10.2882263652551
0.205316619840069,-18.0192207813416,-0.0491318461833121,17.9700889351583,9.03417631376246,-17.99465485825,8.9604785444875
0.207477847417333,-15.0243272859348,0.0837678245189306,15.1080951104537,7.47027973070794,-15.0662111981943,7.59593146748634
0.209639074994597,-12.2620089213098,0.164540929085358,12.4265498503952,6.04873399611223,-12.3442793858525,6.29554538974026
0.211800302571861,-10.0018704258032,0.141087242103273,10.1429576679065,4.93039159184996,-10.0724140468548,5.14202245500487
0.213961530149125,-8.43404434483915,0.0102408231930076,8.44428516803216,4.21190176082307,-8.43916475643566,4.22726299561258
0.216122757726389,-7.64687188472027,-0.174524399714237,7.47234748500603,3.91069814221725,-7.55960968486315,3.6489115426459
0.218283985303652,-7.59321711003513,-0.328754195743837,7.26446291429129,3.96098565288948,-7.42884001216321,3.46785435927373
0.220445212880916,-8.11315250852662,-0.382331863522432,7.73082064500419,4.24774218602453,-7.92198657676541,3.67424439074088
0.22260644045818,-9.02726958220637,-0.309688721221599,8.71758086098477,4.66847915171399,-8.87242522159557,4.20394606988159
0.224767668035444,-10.2187632676501,-0.132437107684978,10.0863261599651,5.17560018766754,-10.1525447138076,4.97694452614007
0.226928895612708,-11.6475715176002,0.0920682129516748,11.7396397305519,5.77775165232428,-11.6936056240761,5.91585397175179
0.229090123189972,-13.3176672578383,0.291841034941687,13.6095082927799,6.51291311144828,-13.4635877753091,6.95067466386081
0.231251350767236,-15.2258016478951,0.414981335794914,15.64078298369,7.40541015605011,-15.4332923157926,8.02788215974248
0.2334125783445,-17.3284608923252,0.454084347482922,17.7825452398081,8.43718827242112,-17.5555030660666,9.11831479364551
0.235573805921764,-19.5633546893601,0.435224132133566,19.9985788214936,9.56406527861324,-19.7809667554268,10.2169014768136
0.237735033499027,-21.8770482586465,0.384192162925877,22.2612404215724,10.7464280478603,-22.0691443401094,11.3227162922491
0.239896261076291,-24.177656316085,0.315032266266468,24.4926885823515,11.9313120249093,-24.3351724492182,12.403860424309
0.242057488653555,-26.2486652577653,0.244893152222248,26.4935584099875,13.0018860527715,-26.3711118338764,13.3692257811049
0.244218716230819,-27.7338455724795,0.193326772548998,27.9271723450285,13.7702593999652,-27.830508958754,14.0602495587887
0.246379943808083,-28.2081587930195,0.175859975241182,28.3840187682607,14.0161494088892,-28.2960887806401,14.2799393717509
0.248541171385347,-27.2379618768655,0.207465832058855,27.4454277089244,13.5152480224033,-27.3416947928949,13.8264467704916
0.250702398962611,-24.3350367628372,0.297300815227797,24.632337578065,12.0188679738047,-24.4836871704511,12.4648191966464
0.252863626539875,-18.8295934061371,0.445008364336591,19.2746017704737,9.19229252090027,-19.0520975883054,9.85980506740515
0.255024854117139,-9.81634301002566,0.632309130438331,10.448652140464,4.59201693979367,-10.1324975752448,5.54048063545116
0.257186081694402,3.69988229332928,0.804746871264743,-2.89513542206454,-2.25231458229701,3.29750885769691,-1.0451942753999
0.259347309271666,22.4592604374811,0.897394508039911,-21.5618659294412,-11.6783274727605,22.0105631834611,-10.3322357107006
0.26150853684893,46.4977690257279,0.885228555303125,-45.6125404704248,-23.6914987905155,46.0551547480764,-22.3636559575608
0.263669764426194,74.7520299811586,0.781628156727448,-73.9704018244312,-37.766829068943,74.3612159027949,-36.5943868338519
0.265830992003458,104.891929134345,0.604376087823042,-104.287553046522,-52.7481526110839,104.589741090433,-51.8415884793493
0.267992219580722,133.504711479833,0.361041783843011,-133.14366969599,-66.9328766318382,133.324190587912,-66.3913139560737
0.270153447157986,156.655252219189,0.0643567128962355,-156.590895506293,-78.3598044660426,156.623073862741,-78.2632693966982
0.27231467473525,170.707305877438,-0.241047922769084,-170.948353800207,-85.2331289773345,170.827829838823,-85.5947008614881
0.274475902312514,173.174764680564,-0.477340189124775,-173.652104869689,-86.3487122457196,173.413434775126,-87.0647225294067
0.276637129889777,163.337328705227,-0.567426629788983,-163.904755335016,-81.3849510377191,163.621042020122,-82.2360909824026
0.278798357467041,142.412212439068,-0.47512311057601,-142.887335549644,-70.9685446642462,142.649773994356,-71.6812293301102
0.280959585044305,113.246197956893,-0.227776614094539,-113.473974570988,-56.5092106713994,113.360086263941,-56.8508755925412
0.283120812621569,79.6686046625727,0.0824131566209785,-79.5861915059517,-39.8755089095968,79.6273980842622,-39.7518891746654
0.285282040198833,45.7053732437074,0.332278614654423,-45.373094629053,-23.0188259291809,45.5392339363802,-22.5204080071993
0.287443267776097,14.8870375826354,0.431760514931981,-14.4552770677034,-7.6593990487837,14.6711573251694,-7.01175827638573
0.289604495353361,-10.1685261141972,0.368779247236192,10.5373053614334,4.89987343348049,-10.3529157378153,5.45304230433478
0.291765722930625,-27.9274784132969,0.206342942581258,28.1338213558781,13.8605677353578,-28.0306498845875,14.1700821492297
0.293926950507888,-37.9795121122688,0.0388354907745012,38.0183476030433,18.9703383107471,-37.998929857656,19.0285915469089
0.296088178085152,-40.9746311378191,-0.0615703822968584,40.9130607555222,20.518100760058,-40.9438459466707,20.4257451866127
0.298249405662416,-38.4642661807513,-0.0683405117539002,38.3959256689974,19.2663033462526,-38.4300959248743,19.1637925786217
0.30041063323968,-32.6313114915016,0.00101262953350434,32.6323241210351,16.3151494309841,-32.6318178062684,16.3166683752843
0.302571860816944,-25.8638748928643,0.103363742612634,25.967238635477,12.8802555751259,-25.9155567641707,13.0353011890448
0.304733088394208,-20.2270741104865,0.205727662377608,20.4328017728641,10.0106732240545,-20.3299379416753,10.3192647176209
0.306894315971472,-17.0108436012235,0.294718508261765,17.3055621094852,8.35806254648084,-17.1582028553543,8.80014030887349
0.309055543548736,-16.5394475102296,0.350796997845512,16.8902445080751,8.09432525619203,-16.7148460091523,8.6205207529603
0.311216771126,-18.2958416482769,0.341118874262596,18.6369605225395,8.97736138700716,-18.4664010854082,9.48903969840105
0.313377998703263,-21.2501954344281,0.244533662304077,21.4947290967322,10.502830886062,-21.3724622655801,10.8696313795181
0.315539226280527,-24.2552254452302,0.0761791508143267,24.3314045960445,12.0895231472079,-24.2933150206374,12.2037918734294
0.317700453857791,-26.3908457211718,-0.110578045811128,26.2802676753607,13.2507118834915,-26.3355566982662,13.0848448147748
0.319861681435055,-27.1486972780027,-0.25201924747186,26.8966780305308,13.7003582627373,-27.0226876542668,13.3223293915295
0.322022909012319,-26.4552520575155,-0.31224593156978,26.1430061259457,13.3837489945426,-26.2991290917306,12.915380097188
0.324184136589583,-24.6009529816511,-0.295430049436785,24.3055229322143,12.448191515544,-24.4532379569327,12.0050464413888
0.326345364166847,-22.1147044276059,-0.228991742175723,21.8857126854302,11.1718480848908,-22.0002085565181,10.8283604716272
0.328506591744111,-19.6272981725425,-0.146698087226537,19.480600085316,9.88699812988452,-19.5539491289292,9.66695099904472
0.330667819321375,-17.7293558811614,-0.0815558105515001,17.6478000706099,8.90545584585643,-17.6885779758856,8.78312213002918
0.332829046898638,-16.8034325410675,-0.0545176712730203,16.7489148697945,8.42897510617025,-16.776173705431,8.34719859926072
0.334990274475902,-16.90587533277,-0.0623580660987797,16.8435172666712,8.48411669943438,-16.8746962997206,8.39057960028621
0.337151502053166,-17.7899251427761,-0.0805610144352477,17.7093641283409,8.93524307860569,-17.7496446355585,8.81440155695282
0.33931272963043,-19.0408625617472,-0.081339073683688,18.9595234880635,9.56110081771544,-19.0001930249053,9.43909220718991
0.341473957207694,-20.2296931992475,-0.050907658970231,20.1787855402773,10.1403004291089,-20.2042393697624,10.0639389406535
0.343635184784958,-21.0230163958889,0.00951865554254505,21.0325350514314,10.5067488701732,-21.0277757236602,10.521026853487
0.345796412362222,-21.2417060496558,0.0921447149944703,21.3338507646502,10.5747806673306,-21.287778407153,10.7129977398224
0.347957639939486,-20.8837979949991,0.183016162645271,21.0668141576444,10.3503909161769,-20.9753060763218,10.6249151601448
0.35011886751675,-20.0924428294601,0.272140100982034,20.3645829304421,9.91015136423902,-20.2285128799511,10.3183615157121
0.352280095094013,-19.0596953593857,0.379632502256083,19.4393278616418,9.34003142856483,-19.2495116105138,9.90948018194895
0.354441322671277,-17.9383479767015,0.540507631602459,18.4788556083039,8.6989201725495,-18.2086017925027,9.50968161995319
0.356602550248541,-16.8177451367615,0.747201071629916,17.5649462083914,8.0352720325658,-17.1913456725765,9.15607364001067
0.358763777825805,-15.722805668315,0.929515893184611,16.6523215614996,7.39664488756519,-16.1875636149073,8.79091872734211
0.360925005403069,-14.6168546653179,0.98523278929308,15.602087454611,6.8158109380124,-15.1094710599644,8.29366012195202
0.363086232980333,-13.4512012826388,0.837554543440568,14.2887558260794,6.30682336959914,-13.8699785543591,7.56315518475999
0.365247460557597,-12.2334427237442,0.508185609116597,12.7416283328608,5.86262855731381,-12.4875355283025,6.6249069709887
0.367408688134861,-11.0297219476164,0.129209869209132,11.1589318168255,5.45025603920363,-11.094326882221,5.64407084301733
0.369569915712124,-9.89444153636442,-0.137278661208045,9.75716287515637,5.01586009878623,-9.82580220576039,4.80994210697416
0.371731143289388,-8.80506976033651,-0.18252246111474,8.62254729922177,4.49379611072562,-8.71380852977914,4.22001241905351
0.373892370866652,-7.67476234256886,0.0096002038696632,7.68436254643852,3.8325810693496,-7.67956244450369,3.84698137515409
0.376053598443916,-6.42139895583511,0.365490197802346,6.78688915363745,3.02795437901638,-6.60414405473628,3.5761896757199
0.37821482602118,-5.01735436511697,0.770987637713949,5.78834200283091,2.12318336370151,-5.40284818397394,3.27966482027243
0.380376053598444,-3.51311438786698,1.11377969161174,4.62689407947871,1.19966734812762,-4.07000423367285,2.87033688554522
0.382537281175708,-2.05850484313886,1.29850684035329,3.35701168349216,0.379999001392785,-2.70775826331551,2.32775926192273
0.384698508752972,-0.887309515835582,1.27788397479587,2.16519349063145,-0.195287229480142,-1.52625150323352,1.72153873271366
0.386859736330236,-0.229912993371215,1.0725899173003,1.30250291067152,-0.421338461964543,-0.766207952021366,1.18754641398591
0.389020963907499,-0.200395366162752,0.754662235045294,0.955057601208046,-0.277133434441271,-0.577726483685399,0.85485991812667
0.391182191484763,-0.746056661293153,0.416207315137914,1.16226397643107,0.164924673077619,-0.95416031886211,0.789235645784491
0.393343419062027,-1.67474335326962,0.124443958758735,1.79918731202835,0.775149697255442,-1.73696533264899,0.961815635393545
0.395504646639291,-2.70072850205734,-0.102870716034067,2.59785778602328,1.40179960904571,-2.64929314404031,1.24749353499461
0.397665874216555,-3.48979896907805,-0.272226154154345,3.21757281492371,1.8810125616162,-3.35368589200088,1.47267333038468
0.399827101793819,-3.7437916984932,-0.387860177810269,3.35593152068293,2.06582593815173,-3.54986160958806,1.48403567143633
0.401988329371083,-3.31012913842601,-0.459016545531646,2.85111259289436,1.88457284197883,-3.08062086566018,1.19604802368136
0.404149556948347,-2.22906402648695,-0.506107108083625,1.72295691840333,1.36758556728529,-1.97601047244514,0.608424905159851
0.406310784525611,-0.695610097942563,-0.547552851915545,0.148057246027018,0.621581474929054,-0.42183367198479,-0.199747802944263
0.408472012102874,0.99147101268386,-0.583258576390835,-1.57472958907469,-0.204106218146513,1.28310030087928,-1.07899408273276
0.410633239680138,2.46288742030822,-0.585388781841392,-3.04827620214961,-0.938749319233414,2.75558181122892,-1.8168324919955
0.412794467257402,3.35906733074938,-0.514024447432607,-3.87309177818199,-1.42252144165839,3.61607955446569,-2.1935581128073
0.414955694834666,3.48613638525703,-0.347940645527062,-3.83407703078409,-1.56909786986498,3.66010670802056,-2.09100883815558
0.41711692241193,2.92907707307418,-0.109586577732963,-3.03866365080715,-1.40974524767061,2.98387036194066,-1.57412511427005
0.419278149989194,1.9910617836542,0.11531287531596,-1.87574890833824,-1.05318732948508,1.93340534599622,-0.880218016511142
0.421439377566458,1.03430341072816,0.206456080923963,-0.827847329804194,-0.62037974582606,0.931075370266175,-0.310695624440115
0.423600605143722,0.408667075763191,0.10335938518599,-0.305307690577201,-0.25601323047459,0.356987383170196,-0.100974152695605
0.425761832720986,0.479155676963771,-0.148424528603603,-0.627580205567374,-0.165365574180084,0.553367941265572,-0.388002367085488
0.427923060298249,1.59406378738893,-0.458947035161259,-2.05301082255019,-0.567558376113837,1.82353730496956,-1.25597892885573
0.430084287875513,3.92287255393448,-0.750350959308274,-4.67322351324275,-1.5862607973131,4.29804803358861,-2.71178723627551
0.432245515452777,7.29516745212717,-0.956249840198145,-8.25141729232532,-3.16945880596451,7.77329237222625,-4.60383356626173
0.434406743030041,11.2107249383045,-1.02782108768722,-12.2385460259917,-5.09145192530864,11.7246354821481,-6.63318355683947
0.436567970607305,15.0186225907427,-0.952274590908249,-15.9708971816509,-7.0331739999172,15.4947598861968,-8.46158588627958
0.438729198184569,18.1241772375706,-0.752987789628596,-18.8771650271992,-8.68559472397103,18.5006711323849,-9.81507640841392
0.440890425761833,20.1172073950104,-0.472460711175649,-20.589668106186,-9.82237334191736,20.3534377505982,-10.5310644086808
0.443051653339097,20.8111724050838,-0.148339783792052,-20.9595121888758,-10.3314163106459,20.8853422969798,-10.5539259863339
0.445212880916361,20.2280790771066,0.197216321439603,-20.030862755667,-10.2126476992731,20.1294709163868,-9.91682321711368
0.447374108493624,18.5526811909948,0.53492052611191,-18.0177606648829,-9.54380085855335,18.2852209279388,-8.74142006938549
0.449535336070888,16.0737531537315,0.798554560306254,-15.2751985934253,-8.43615385701889,15.6744758735784,-7.23832201655951
0.451696563648152,13.1559175520092,0.909152625366044,-12.2467649266432,-7.03253508868762,12.7013412393262,-5.66880615063856
0.453857791225416,10.2515281868538,0.846382553788303,-9.40514563306551,-5.54895537032106,9.82833690995966,-4.2793815396386
0.45601901880268,7.87907507570959,0.662230467960549,-7.21684460774904,-4.27065277183507,7.54795984172931,-3.27730706989424
0.458180246379944,6.53400216187173,0.420995166219737,-6.113006995652,-3.47749866404574,6.32350457876186,-2.84600591471613
0.460341473957208,6.58097328305885,0.177920925680183,-6.40305235737866,-3.37944710436951,6.49201282021875,-3.11256571584924
0.462502701534472,8.15147891313934,-0.00808075096306293,-8.15955966410241,-4.07169908108814,8.15551928862087,-4.08382020753273
0.464663929111735,11.0708890344751,-0.101462118692454,-11.1723511531676,-5.48471345789133,11.1216200938213,-5.63690663593001
0.466825156688999,14.8811422526687,-0.109499168837377,-14.990641421506,-7.38582154191564,14.9358918370873,-7.5500702951717
0.468986384266263,18.9678902289422,-0.0565347269474875,-19.0244249558897,-9.45567775099734,18.9961575924159,-9.54047984141857
0.471147611843527,22.7069242240916,0.0464013890977945,-22.6605228349938,-11.3766628065947,22.6837235295427,-11.307060722948
0.473308839420791,25.563412041521,0.208614723663217,-25.3547973178578,-12.8860133825921,25.4591046796894,-12.5730912970973
0.475470066998055,27.1719602602452,0.432646085645277,-26.7393141745999,-13.8023031729452,26.9556372174226,-13.1533340444773
0.477631294575319,27.4185570733449,0.687868412981459,-26.7306886603634,-14.0532127431632,27.0746228668542,-13.021410123691
0.479792522152583,26.478906362038,0.931514947905364,-25.5473914141326,-13.7052106549717,26.0131488880853,-12.3079382331136
0.481953749729847,24.7871648708625,1.1332798865285,-23.653884984334,-12.9602223786955,24.2205249275982,-11.2603025489027
0.48411497730711,22.932354772433,1.25484818431545,-21.6775065881175,-12.0936014783742,22.3049306802753,-10.211329201901
0.486276204884374,21.5003172084297,1.23938516497403,-20.2609320434557,-11.3698511867019,20.8806246259427,-9.51077343924082
0.488437432461638,20.9250089704794,1.06614250232922,-19.8588664681502,-10.9955757364043,20.3919377193148,-9.39636198291048
0.490598660038902,21.3899838927278,0.798317557209024,-20.5916663355187,-11.0941507249684,20.9908251141232,-9.89667438915485
0.492759887616166,22.797636655837,0.543761655601184,-22.2538750002358,-11.6706991557191,22.5257558280364,-10.8550566723173
0.49492111519343,24.8254231141893,0.387554887573967,-24.4378682266153,-12.6064890008816,24.6316456704023,-12.0251566695207
0.497082342770694,27.0461701335517,0.364451062400281,-26.6817190711515,-13.705310597976,26.8639446023516,-13.1586340043756
0.499243570347958,29.0664480890755,0.448115660050212,-28.6183324290253,-14.7572818745629,28.8423902590504,-14.0851083844876
0.501404797925222,30.6340485409605,0.548978931494113,-30.0850696094664,-15.5915137362273,30.3595590752135,-14.7680453389862
0.503566025502485,31.6757533242357,0.562924869633878,-31.1128284546018,-16.1193390969348,31.3942908894188,-15.274951792484
0.505727253079749,32.2690067060628,0.458996735057527,-31.8100099710053,-16.3640017205602,32.0395083385341,-15.6755066179739
0.507888480657013,32.5728652442657,0.302523536022001,-32.2703417082437,-16.4376943901439,32.4216034762547,-15.9839090861109
0.510049708234277,32.7493894128467,0.18105450855866,-32.568334904288,-16.4652219607027,32.6588621585673,-16.1936401978647
0.512210935811541,32.8998059013952,0.133724949960804,-32.7660809514344,-16.516765425678,32.8329434264148,-16.3161780007368
0.514372163388805,33.0329333097294,0.154094786777922,-32.8788385229515,-16.5935140482537,32.9558859163404,-16.3623718680868
0.516533390966069,33.081269375941,0.240048702412701,-32.8412206735283,-16.6606590391769,32.9612450247347,-16.3005859855578
0.518694618543333,32.9402818630821,0.408930596235321,-32.5313512668467,-16.6746062296587,32.7358165649644,-16.0612103353057
0.520855846120597,32.4892904904927,0.637491238480113,-31.8517992520126,-16.5633908644864,32.1705448712526,-15.6071540067662
0.52301707369786,31.5908303075918,0.82511307933602,-30.7657172282558,-16.2079716934639,31.1782737679238,-14.9703020744599
0.525178301275124,30.0965098122416,0.869714590874222,-29.2267952213674,-15.4831122015579,29.6616525168045,-14.1785403152466
0.527339528852388,27.8885094040864,0.753133509642703,-27.1353758944437,-14.3208214568646,27.5119426492651,-13.1911211924005
0.529500756429652,24.9620204734139,0.521006207614386,-24.4410142657995,-12.7415133405142,24.7015173696067,-11.9600040290926
0.531661984006916,21.5033056532175,0.233735067135479,-21.269570586082,-10.8685203601765,21.3864381196497,-10.5179177594733
0.53382321158418,17.8797044565173,-0.0332413243419623,-17.9129457808592,-8.92323156608766,17.8963251186883,-8.97309355260061
0.535984439161444,14.51392833075,-0.20209067638389,-14.7160190071339,-7.15591882718306,14.6149736689419,-7.45905484175889
0.538145666738708,11.7246288150759,-0.24691562374578,-11.9715444388217,-5.73885659566507,11.8480866269488,-6.10923003128374
0.540306894315971,9.62924421602919,-0.214158005332461,-9.84340222136165,-4.70754310534836,9.73632321869542,-5.02878011334705
0.542468121893235,8.1314217468801,-0.170499385543218,-8.30192113242332,-3.98046118066844,8.21667143965171,-4.23621025898327
0.544629349470499,6.96609488686787,-0.139570735028474,-7.10566562189635,-3.4132620759197,7.03588025438211,-3.62261817846241
0.546790577047763,5.78555991331114,-0.104635732054126,-5.89019564536527,-2.84046209062851,5.8378777793382,-2.9974156887097
0.548951804625027,4.29408547660719,-0.0579253862350413,-4.35201086284223,-2.11808004518608,4.32304816972471,-2.20496812453864
0.551113032202291,2.38645028939088,-0.0100947677020191,-2.3965450570929,-1.18817776084443,2.39149767324189,-1.20331991239746
0.553274259779555,0.184133179784773,0.0343923591976472,-0.149740820587126,-0.10926276949121,0.166937000185949,-0.0576742306947393
0.555435487356819,-2.05750104750479,0.0730476252900067,2.1305486727948,0.992226711107393,-2.0940248601498,1.1017981490424
0.557596714934083,-4.08003513761302,0.0956561596647398,4.17569129727776,1.99218948897414,-4.12786321744539,2.13567372847125
0.559757942511346,-5.70973155018249,0.0925859135219018,5.80231746370439,2.80857281833029,-5.75602450694344,2.94745168861315
0.56191917008861,-6.89197866428947,0.0588488673509395,6.95082753164041,3.41656489846926,-6.92140309796494,3.50483819949567
0.564080397665874,-7.68047886572715,0.0115576126708408,7.69203647839799,3.83446062652815,-7.68625767206257,3.85179704553441
0.566241625243138,-8.18679142872735,-0.00250921552293226,8.18428221320441,4.09465032212514,-8.18553682096588,4.09088649884074
0.568402852820402,-8.52242775532462,0.0490569637533955,8.57148471907802,4.23668539578561,-8.54695623720132,4.31027084141571
0.570564080397666,-8.77223413573152,0.149452393047164,8.92168652877868,4.31139087134218,-8.8469603322551,4.53556946091292
0.57272530797493,-8.99621275941077,0.251543806781148,9.24775656619192,4.37233447631481,-9.12198466280135,4.74965018648653
0.574886535552194,-9.24629344015255,0.316834252833291,9.56312769298584,4.46472959365963,-9.40471056656919,4.93998097290956
0.577047763129457,-9.60293600012383,0.34241154566129,9.94534754578512,4.63026222723127,-9.77414177295448,5.14387954572321
0.579208990706721,-10.1849369300753,0.34939170518856,10.5343286352638,4.91777261244336,-10.3596327826696,5.4418601702262
0.581370218283985,-11.0791697142108,0.345162466579459,11.4243321807902,5.36700362381565,-11.2517509475005,5.88474732368484
0.583531445861249,-12.2517681794019,0.316502446832029,12.568270626234,5.96763286628495,-12.4100194028179,6.44238653653299
0.585692673438513,-13.5346389591719,0.253320541076547,13.7879595002484,6.64065920904767,-13.6612992297102,7.02064002066249
0.587853901015777,-14.7025361195501,0.163083431985749,14.8656195515359,7.26972634378218,-14.784077835543,7.5143514917608
0.590015128593041,-15.5945968976609,0.0703050705652075,15.6649019682261,7.76214591354786,-15.6297494329435,7.86760351939567
0.592176356170305,-16.1857013230471,0.006122115032551,16.1918234380797,8.0897896040073,-16.1887623805634,8.09897277655612
0.594337583747569,-16.5272152282817,-0.0136415590180929,16.5135736692636,8.27042839364989,-16.5203944487726,8.24996605512275
0.596498811324833,-16.6196901107417,-0.0120818352151355,16.6076082755266,8.31588597297842,-16.6136491931341,8.29776322015571
0.598660038902096,-16.3679970180097,-0.0368050667699569,16.3311919512397,8.20240104238982,-16.3495944846247,8.14719344223489
0.60082126647936,-15.6555819825752,-0.106275077066211,15.549306905509,7.88092852982072,-15.6024444440421,7.7215159142214
0.602982494056624,-14.4569287974988,-0.189560062178072,14.2673687353207,7.32324442983845,-14.3621487664098,7.03890433657134
0.605143721633888,-12.912624677734,-0.247382171727647,12.6652425060063,6.58000342473081,-12.7889335918702,6.20893016713934
0.607304949211152,-11.3307849879906,-0.27808680155643,11.0526981864342,5.80443589477353,-11.1917415872124,5.38730569243889
0.609466176788416,-10.1246675528108,-0.312609535615723,9.8120580171951,5.21863854421327,-9.96836278500296,4.74972424078969
0.61162740436568,-9.6849451112424,-0.364566300129647,9.32037881111276,5.02475570568603,-9.50266196117758,4.47790625549155
0.613788631942944,-10.1908438306922,-0.398055778162077,9.79278805253015,5.29444980442715,-9.99181594161119,4.69736613718404
0.615949859520208,-11.4948681754135,-0.353581203224121,11.1412869721894,5.92422468931881,-11.3180775738014,5.39385288448263
0.618111087097471,-13.2022362296964,-0.194087531708225,13.0081486979882,6.69816188070233,-13.1051924638423,6.40703058314
0.620272314674735,-14.8572119405834,0.077304438452946,14.9345163790363,7.38995375106521,-14.8958641598098,7.50591040874463
0.622433542251999,-16.0794547709846,0.41990118568906,16.4993559566736,7.82977679264776,-16.2894053638291,8.45962857118135
0.624594769829263,-16.6268310420562,0.761489075031556,17.3883201170877,7.9326709835123,-17.0075755795719,9.07490459605964
0.626755997406527,-16.443794502624,1.02250950635749,17.4663040089815,7.71064249813326,-16.9550492558028,9.2444067576695
0.628917224983791,-15.6803780793332,1.16345532170034,16.8438334010336,7.25846137881644,-16.2621057401834,9.00364436136696
0.631078452561055,-14.6346529214276,1.1974673879083,15.8321203093359,6.71859276675967,-15.2333866153818,8.51479384862212
0.633239680138319,-13.6482023395424,1.13125960176427,14.7794619413066,6.25847136888904,-14.2138321404245,7.95536077153545
0.635400907715582,-13.0019069075193,0.933158979902426,13.9350658874217,6.03437396380845,-13.4684863974705,7.43411243366209
0.637562135292846,-12.8326809666968,0.603308353197987,13.4359893198947,6.11468630674939,-13.1343351432958,7.01964883654637
0.63972336287011,-13.1073913911807,0.23691348366968,13.3443048748503,6.43523895375549,-13.2258481330155,6.79060917926001
0.641884590447374,-13.6601125089976,-0.0253818540420232,13.6347306549556,6.84274718151983,-13.6474215819766,6.8046744004568
0.644045818024638,-14.2367633896559,-0.0975870171346735,14.1391763725212,7.16717520339528,-14.1879698810885,7.02079467769327
0.646207045601902,-14.5254740310698,0.00210415571171607,14.5275781867815,7.26168493767905,-14.5265261089257,7.26484117124662
0.648368273179166,-14.2279513959467,0.175879716772886,14.4038311127196,7.0260358395869,-14.3158912543331,7.28985541474623
0.65052950075643,-13.1958608824673,0.311114596148121,13.5069754786154,6.4423731431596,-13.3514181805414,6.90904503738178
0.652690728333694,-11.5263101543362,0.333670950272181,11.8599811046084,5.59631960203203,-11.6931456294723,6.0968260274403
0.654851955910957,-9.49370098330995,0.228347424331145,9.72204840764109,4.6326767794894,-9.60787469547552,4.97519791598612
0.657013183488221,-7.37562973948563,0.0376472036595143,7.41327694314514,3.66899126791306,-7.39445334131538,3.72546207340233
0.659174411065485,-5.36259624836569,-0.159680069297241,5.20291617906845,2.76113815883147,-5.28275621371707,2.5216180548856
0.661335638642749,-3.61683137033116,-0.287215593427712,3.32961577690345,1.95202348187944,-3.47322357361731,1.52120009173787
0.663496866220013,-2.33461952297983,-0.303033923026145,2.03158559995369,1.31882672300299,-2.18310256146676,0.864275838463772
0.665658093797277,-1.69153407407859,-0.213435049950197,1.47809902412839,0.952484562014392,-1.58481654910349,0.632331987089096
0.667819321374541,-1.72979284962251,-0.0655532780934429,1.66423957152907,0.897673063857978,-1.69701621057579,0.799343146717813
0.669980548951805,-2.30903086609196,0.0756116033871979,2.38464246947916,1.11670963135238,-2.34683666778556,1.23012703643318
0.672141776529068,-3.19335613496758,0.151620681352627,3.34497681632021,1.52086772680748,-3.26916647564389,1.74829874883642
0.674303004106332,-4.2027810943943,0.14090819756547,4.34368929195977,2.03093644841442,-4.27323519317703,2.24229874476262
0.676464231683596,-5.25982677543696,0.0701001785198043,5.32992695395676,2.59486329845858,-5.29487686469686,2.70001356623828
0.67862545926086,-6.31080447433137,-0.0264133501063353,6.28439112422503,3.16860891221885,-6.2975977992782,3.12898888705935
0.680786686838124,-7.24132105040066,-0.141916088447684,7.09940496195298,3.69161856942417,-7.17036300617682,3.47874443675265
0.682947914415388,-7.85837154850544,-0.277754506377938,7.5806170421275,4.06806302744169,-7.71949429531647,3.65143126787478
0.685109141992652,-7.95616163883356,-0.415843137934352,7.5403185008992,4.18600238838395,-7.74824006986638,3.56223768148243
0.687270369569916,-7.43951492596444,-0.518852266893121,6.92066265907132,3.97918359642878,-7.18008879251788,3.2009051960891
0.68943159714718,-6.41401949985441,-0.548366650692577,5.86565284916183,3.48119307527349,-6.13983617450812,2.65864309923463
0.691592824724444,-5.17805791358282,-0.486295113503902,4.69176280007892,2.83217651354336,-4.93491035683087,2.10273384328751
0.693754052301707,-4.13029712081793,-0.344713100402643,3.78558402041529,2.23750511061029,-3.95794057061661,1.72043546000632
0.695915279878971,-3.62783801681329,-0.170858201312252,3.45697981550103,1.89934810906277,-3.54240891615716,1.64306080709439
0.698076507456235,-3.84678105304111,-0.0402088716724416,3.80657218136867,1.94349496235678,-3.82667661720489,1.88318165484811
0.700237735033499,-4.72327896903297,-0.0110887435091058,4.71219022552387,2.36718385627104,-4.71773459727842,2.35055074100738
0.702398962610763,-5.99667026281006,-0.0707107590423934,5.92595950376766,3.03369051092622,-5.96131488328886,2.92762437236263
0.704560190188027,-7.30117408875283,-0.150020962430255,7.15115312632258,3.72559752559154,-7.22616360753771,3.50056608194616
0.706721417765291,-8.27891270590891,-0.201935535912733,8.07697716999618,4.24042412091082,-8.17794493795254,3.93752081704172
0.708882645342555,-8.70095830716308,-0.236762804248718,8.46419550291436,4.4688605557059,-8.58257690503872,4.11371634933282
0.711043872919819,-8.53652809721487,-0.28859071381926,8.24793738339561,4.41255940551707,-8.39223274030524,3.97967333478818
0.713205100497082,-7.92455643474483,-0.376118027056515,7.54843840768831,4.15033723090067,-7.73649742121657,3.5861601903159
0.715366328074346,-7.08051329244449,-0.4798840537395,6.60062923870499,3.78019867309199,-6.84057126557474,3.06037259248274
0.71752755565161,-6.21654766779114,-0.546916440683911,5.66963122710723,3.38173205423753,-5.94308944744918,2.56135739321166
0.719688783228874,-5.51125058116485,-0.535626460703558,4.97562412046129,3.0234385209342,-5.24343735081307,2.21999882987887
0.721850010806138,-5.11726663492468,-0.457681044761235,4.65958559016344,2.78747383984296,-4.88842611254406,2.1009522727011
0.724011238383402,-5.16738857445094,-0.361386845790334,4.8060017286606,2.76438771012063,-4.98669515155577,2.22230744143513
0.726172465960666,-5.71386092689491,-0.279215469974524,5.43464545692039,2.99653819843472,-5.57425319190765,2.57771499347293
0.72833369353793,-6.62085409828235,-0.211978737172693,6.40887536110966,3.41641641772752,-6.51486472969601,3.09844831196848
0.730494921115193,-7.54229806121272,-0.153331791658502,7.38896626955422,3.84781492643561,-7.46563216538347,3.61781723894786
0.732656148692457,-8.0497929232764,-0.0963373232174916,7.9534556000589,4.07306512324694,-8.00162426166765,3.92855913842071
0.734817376269721,-7.82654806887518,-0.0222707401090607,7.80427732876612,3.92440940449212,-7.81541269882065,3.89100329432853
0.736978603846985,-6.8014208831353,0.0816569722505545,6.88307785538585,3.35988195544237,-6.84224936926058,3.4823674138182
0.739139831424249,-5.1529913177567,0.197713655790657,5.35070497354736,2.47763883098302,-5.25184814565203,2.77420931466901
0.741301059001513,-3.2069017495212,0.291891433834225,3.49879318335543,1.45750515784349,-3.35284746643832,1.89534230859483
0.743462286578777,-1.32419779969277,0.339376796187073,1.66357459587984,0.49241050175285,-1.49388619778631,1.00147569603346
0.745623514156041,0.151421629697072,0.328767916011389,0.177346286314317,-0.240094772854231,-0.0129623283086222,0.253057101162853
0.747784741733305,0.911379916444726,0.258380806565132,-0.652999109879594,-0.584880361504929,0.78218951316216,-0.197309151657231
0.749945969310568,0.72919468258717,0.137245609018423,-0.591949073568747,-0.433220145802797,0.660571878077959,-0.227351732275162
0.752107196887832,-0.44383550942888,-0.00911421142979751,0.434721297999082,0.226474860429339,-0.439278403713981,0.212803543284642
0.754268424465096,-2.4101794347617,-0.134960277044262,2.27521915771744,1.27256985590298,-2.34269929623957,1.07012944033659
0.75642965204236,-4.78097954283068,-0.19223220081241,4.58874734201827,2.48660587182154,-4.68486344242447,2.19825757060293
0.758590879619624,-7.12357039815554,-0.167457216150856,6.95611318200469,3.6455138071532,-7.03984179008012,3.39432798292692
0.760752107196888,-9.07489216190644,-0.0887706283233607,8.98612153358308,4.5818313951149,-9.03050684774476,4.44867545262986
0.762913334774152,-10.3738477460356,0.0131671899628152,10.3870149359984,5.18034027803638,-10.380431341017,5.20009106298061
0.765074562351416,-10.8606380895578,0.133839074281622,10.9944771638394,5.36339950763807,-10.9275576266986,5.5641581190605
0.767235789928679,-10.4838436036952,0.274478711401098,10.7583223150963,5.10468244614706,-10.6210829593958,5.51640051324871
0.769397017505943,-9.32366636893439,0.408287401396704,9.73195377033109,4.45768948376884,-9.52781006963274,5.0701205858639
0.771558245083207,-7.61191416015191,0.480558744679675,8.09247290483159,3.56567770773612,-7.85219353249175,4.28651582475563
0.773719472660471,-5.70620702465492,0.439466400069902,6.14567342472482,2.63337031229251,-5.92594022468987,3.29256991239736
0.775880700237735,-3.99891020736252,0.277938935805784,4.2768491431683,1.86048563577837,-4.13787967526541,2.27739403948704
0.778041927814999,-2.79619701770033,0.054771978709131,2.85096899640946,1.3707125194956,-2.8235830070549,1.4528704875593
0.780203155392263,-2.22397879267962,-0.145354347897284,2.07862444478234,1.18466657028845,-2.15130161873098,0.966635048442528
0.782364382969527,-2.20663093712871,-0.276178857940537,1.93045207918818,1.24140489753463,-2.06854150815845,0.82713661062382
0.784525610546791,-2.52537798511693,-0.3428926637047,2.18248532141223,1.43413532441082,-2.35393165326458,0.919796328853766
0.786686838124054,-2.91998098557207,-0.372988296551021,2.54699268902105,1.64648464106154,-2.73348683729656,1.08700219623501
0.788848065701318,-3.20775693859266,-0.397255495047992,2.81050144354467,1.80250621682033,-3.00912919106866,1.20662297424834
0.791009293278582,-3.37966517495602,-0.439574392740284,2.94009078221573,1.90961978384815,-3.15987797858588,1.25025819473772
0.793170520855846,-3.58783732733101,-0.507654729646386,3.08018259768462,2.0477460284887,-3.33400996250782,1.28626393401912
0.79533174843311,-4.00343977175353,-0.594454087922167,3.40898568383136,2.29894692983785,-3.70621272779244,1.4072657979546
0.797492976010374,-4.65873304284496,-0.672475304869403,3.98625773797556,2.66560417385718,-4.32249539041026,1.65689121655308
0.799654203587638,-5.40910356110399,-0.693269728386056,4.71583383271793,3.05118664474502,-5.06246869691096,2.01128205216594
0.801815431164902,-6.00875923007589,-0.623030326685554,5.38572890339033,3.31589477838072,-5.69724406673311,2.38134928835239
0.803976658742166,-6.20089669551311,-0.471154847930909,5.7297418475822,3.33602577172201,-5.96531927154765,2.62929349982565
0.80613788631943,-5.81086203846314,-0.279096604239019,5.53176543422412,3.04497932135108,-5.67131373634363,2.62633441499255
0.808299113896693,-4.83731733619963,-0.103350585032778,4.73396675116685,2.4703339606162,-4.78564204368324,2.31530808306704
0.810460341473957,-3.44401503872643,0.00449122151845871,3.44850626024489,1.71976190860399,-3.44626064948566,1.72649874088168
0.812621569051221,-1.84712715882227,0.035884519079767,1.88301167790203,0.90562131987125,-1.86506941836215,0.959448098490901
0.814782796628485,-0.214830172993352,0.0386889664414372,0.253519139434789,0.0880706032759575,-0.234174656214071,0.146104052938113
0.816944024205749,1.35502515023711,0.0660061746550515,-1.28901897558206,-0.710515662446081,1.32202206290959,-0.611506400463504
0.819105251783013,2.79875621927012,0.115955644785279,-2.68280057448484,-1.4573559320277,2.74077839687748,-1.28342246484978
0.821266479360277,4.05431613324079,0.140601319198693,-3.9137148140421,-2.09745872621974,3.98401547364144,-1.8865567474217
0.823427706937541,5.07416275970569,0.112317780321006,-4.96184497938469,-2.59324027001335,5.01800386954519,-2.42476359953184
0.825588934514804,5.85435951741169,0.0628719655469259,-5.79148755186476,-2.95861574147931,5.82292353463822,-2.86430779315892
0.827750162092068,6.4257550463322,0.0386559813484886,-6.38709906498371,-3.23220551384034,6.40642705565795,-3.17422154181761
0.829911389669332,6.80813189609591,0.0399452785542491,-6.76818661754166,-3.42403858732508,6.78815925681878,-3.3641206694937
0.832072617246596,7.00101860818644,0.0343781680354815,-6.96664044015096,-3.51769838811096,6.9838295241687,-3.46613113605774
0.83423384482386,7.0439511778,-0.00155295445327996,-7.04550413225328,-3.52119911167336,7.04472765502664,-3.52352854335328
0.836395072401124,7.06318877090989,-0.0749497473330987,-7.13813851824299,-3.4941195117884,7.10066364457644,-3.60654413278804
0.838556299978388,7.23041562680326,-0.172859862083788,-7.40327548888705,-3.52877788235973,7.31684555784515,-3.78806767548542
0.840717527555652,7.66415502852641,-0.262107989697687,-7.9262630182241,-3.70102351941436,7.79520902337525,-4.09418550396089
0.842878755132916,8.37201117634169,-0.322149181945054,-8.69416035828675,-4.02493099719832,8.53308576731422,-4.5081547701159
0.845039982710179,9.28317550112505,-0.366602892445699,-9.64977839357075,-4.45828630433968,9.4664769473479,-5.00819064300823
0.847201210287443,10.300487728126,-0.420005285674372,-10.7204930138003,-4.9402412212258,10.5104903709632,-5.57024914973736
0.849362437864707,11.3129541497966,-0.489646065412193,-11.8026002152088,-5.41165404219222,11.5577771825027,-6.14612314031051
0.851523665441971,12.1938055638295,-0.55464749275247,-12.748453056582,-5.81957903553853,12.4711293102058,-6.65155027466724
0.853684893019235,12.8169784090031,-0.572283075491182,-13.3892614844942,-6.12234766675594,13.1031199467487,-6.98077227999271
0.855846120596499,13.0968662005108,-0.514393161071346,-13.6112593615822,-6.29123651971975,13.3540627810465,-7.06282626132677
0.858007348173763,13.0150196715437,-0.401550859701733,-13.4165705312454,-6.30673440592099,13.2157951013946,-6.90906069547359
0.860168575751027,12.6116017085136,-0.278759304484161,-12.8903610129978,-6.16642120201472,12.7509813607557,-6.58456015874096
0.86232980332829,11.966474102485,-0.166307359076975,-12.132781461562,-5.90008337170404,12.0496277820235,-6.1495444103195
0.864491030905554,11.1900958977534,-0.0583915381113097,-11.2484874358647,-5.56585217982105,11.2192916668091,-5.65343948698802
0.866652258482818,10.4175296502875,0.0435979860903801,-10.3739316641971,-5.23056381818894,10.3957306572423,-5.16516683905337
0.868813486060082,9.79021390804285,0.121323637120136,-9.66889027092271,-4.95576877258149,9.72955208948278,-4.77378331690129
0.870974713637346,9.42000710922668,0.159665590902525,-9.26034151832416,-4.78983635006461,9.34017431377542,-4.55033796371082
0.87313594121461,9.32482841255326,0.163225565020329,-9.16160284753293,-4.7440269887868,9.2432156300431,-4.4991886412563
0.875297168791874,9.3693222182904,0.15253179184511,-9.21679042644529,-4.76092700506775,9.29305632236784,-4.53212931730009
0.877458396369138,9.29190100314525,0.134085102160964,-9.15781590098428,-4.71299305265311,9.22485845206477,-4.51186539941166
0.879619623946402,8.81181313845726,0.0725472867449668,-8.73926585171229,-4.44218021260111,8.77553949508477,-4.33335928248366
0.881780851523665,7.73144458336331,-0.0657832341372402,-7.79722781750055,-3.83283067461303,7.76433620043193,-3.93150552581889
0.883942079100929,5.99646233023873,-0.242995069931823,-6.23945740017055,-2.87673363015345,6.11795986520464,-3.24122623505119
0.886103306678193,3.72244451492091,-0.373349733839815,-4.09579424876072,-1.67454739054055,3.90911938184081,-2.23457199130027
0.888264534255457,1.17998133446439,-0.403137280493672,-1.58311861495806,-0.388422026985359,1.38154997471123,-0.993127947725867
0.890425761832721,-1.2826931122057,-0.347482350952681,0.935210761253014,0.815087731579188,-1.10895193672935,0.293864205150166
0.892586989409985,-3.37108488911117,-0.269741978823239,3.10134291028793,1.8204134339672,-3.23621389969955,1.41580046573235
0.894748216987249,-4.96279225954112,-0.214708361653176,4.74808389788795,2.58875031059715,-4.85543807871454,2.26668776811739
0.896909444564513,-6.11899859967415,-0.161952195267418,5.95704640440673,3.14047539747078,-6.03802250204044,2.89754710456965
0.899070672141777,-6.9768436043986,-0.0661119305663314,6.91073167383227,3.52147776748247,-6.94378763911543,3.42230987163297
0.90123189971904,-7.63137068296382,0.0788332827698273,7.71020396573365,3.776268700097,-7.67078732434873,3.89451862425174
0.903393127296304,-8.10380796082024,0.24180979219769,8.34561775301793,3.93099908431128,-8.22471285691909,4.29371377260781
0.905554354873568,-8.36678069667161,0.394375679080005,8.76115637575162,3.9862025087958,-8.56396853621161,4.57776602741581
0.907715582450832,-8.3549483744246,0.520294232091829,8.87524260651643,3.91732707116639,-8.61509549047052,4.69776841930413
0.909876810028096,-7.96858154190726,0.60830231461336,8.57688385652061,3.68013961364695,-8.27273269921394,4.59259308556699
0.91203803760536,-7.12116740019716,0.65267032558896,7.77383772578612,3.2342485373041,-7.44750256299164,4.21325402568754
0.914199265182624,-5.8315556298763,0.656871580465102,6.4884272103414,2.5873420247056,-6.15999142010885,3.57264939540325
0.916360492759888,-4.30622371989923,0.623645933852515,4.92986965375175,1.84128889302336,-4.61804668682549,2.77675779380213
0.918521720337152,-2.94826823866216,0.537413598271435,3.48568183693359,1.20542732019536,-3.21697503779788,2.01154771760251
0.920682947914415,-2.26815436586084,0.390894262172906,2.65904862803375,0.938630051843967,-2.46360149694729,1.52497144510333
0.922844175491679,-2.71037315171248,0.210368365420933,2.92074151713341,1.25000239314577,-2.81555733442295,1.56555494127717
0.925005403068943,-4.42816816892969,0.0220029750750406,4.45017114400473,2.20308259692732,-4.43916965646721,2.23608705953988
0.927166630646207,-7.12702005025536,-0.161712487563679,6.96530756269169,3.64436626890952,-7.04616380647353,3.401797537564
0.929327858223471,-10.1368912683876,-0.319964115584919,9.8169271528027,5.22842769198627,-9.97690921059515,4.74848151860889
0.931489085800735,-12.6902469780689,-0.430892597717507,12.2593543803514,6.56056978789322,-12.4748006792102,5.91423089131696
0.933650313377999,-14.2117216484254,-0.492590353871158,13.7191312945542,7.35215600114828,-13.9654264714898,6.61327047034154
0.935811540955263,-14.4674809666258,-0.524506063761045,13.9429749028648,7.49599351519343,-14.2052279347453,6.70923441955186
0.937972768532527,-13.5551312985148,-0.549344996738223,13.0057863017766,7.05223814762652,-13.2804588001457,6.22822065251919
0.94013399610979,-11.8070658386726,-0.56613446167496,11.2409313769976,6.18660015017377,-11.5239986078351,5.33739845766133
0.942295223687054,-9.689289349592,-0.553718077007602,9.1355712725844,5.1215037132998,-9.4124303110882,4.2909265977884
0.944456451264318,-7.72835536451998,-0.504556162210078,7.22379920230991,4.11645576336503,-7.47607728341495,3.35962152004991
0.946617678841582,-6.44551740110133,-0.431999254130818,6.01351814697051,3.43875832761607,-6.22951777403592,2.79075944641985
0.948778906418846,-6.27126069828306,-0.345608946246599,5.92565175203647,3.30843482226483,-6.09845622515977,2.79002140289493
0.95094013399611,-7.4263899029445,-0.240174517970141,7.18621538497436,3.83328221045732,-7.30630264395943,3.47302043350211
0.953101361573374,-9.79446858076064,-0.115234221754626,9.67923435900602,4.95485140125763,-9.73685146988333,4.7820000686257
0.955262589150638,-12.9037000539226,0.00396106043798372,12.9076611143606,6.44986949674231,-12.9056805841416,6.45581108739929
0.957423816727901,-16.0809608609438,0.0792938333398685,16.1602546942837,8.00083351380198,-16.1206077776138,8.11977426381178
0.959585044305165,-18.6470666055467,0.0966106122081615,18.7436772177548,9.27522799666925,-18.6953719116507,9.4201439149815
0.961746271882429,-19.9984460643301,0.0767329437586369,20.0751790080887,9.96085656028572,-20.0368125362094,10.0759559759237
0.963907499459693,-19.5582506143235,0.0499266628301277,19.6081772771537,9.75416197574671,-19.5832139457386,9.8290519699919
0.966068727036957,-16.6660138324662,0.0331793915341695,16.6991932240004,8.31641722046604,-16.6826035282333,8.36618630776729
0.968229954614221,-10.4932745456346,0.0259236482368119,10.5191981938714,5.23367544869889,-10.506236369753,5.27256092105411
0.970391182191485,-0.0956175155339807,0.011578333185993,0.107195848719974,0.0420195911739938,-0.101406682126977,0.0593870909529833
0.972552409768749,15.3381074674423,-0.0237903388883861,-15.3618978063307,-7.65715856427698,15.3500026368865,-7.69284407260956
0.974713637346013,36.1161153008556,-0.0496381997015322,-36.1657535005571,-18.033238550577,36.1409344007064,-18.1076958501293
0.976874864923276,61.6950396722434,0.00474060171739576,-61.690299070526,-30.8498901369804,61.6926693713847,-30.8427792344043
0.97903609250054,90.4814827978518,0.174551650511424,-90.3069311473404,-45.3280172241816,90.3942069725961,-45.0661897484145
0.981197320077804,119.873450541242,0.407052724413029,-119.466397816829,-60.1402516328276,119.669924179036,-59.5296725462081
0.983358547655068,146.536433049943,0.583332511746025,-145.953100538197,-73.5598827808446,146.24476679407,-72.6848840132256
0.985519775232332,166.87857061025,0.60644794489225,-166.272122665358,-83.7425092775711,166.575346637804,-82.8328373602327
0.987681002809596,177.715495282729,0.493341431878118,-177.222153850851,-89.1044183573034,177.46882456679,-88.3644062094862
0.98984223038686,177.013931567173,0.349022568878908,-176.664908998294,-88.681477068026,176.839420282734,-88.1579432147076
0.992003457964124,164.442275436231,0.268405345607653,-164.173870090623,-82.3553403909192,164.308072763427,-81.9527323725077
0.994164685541387,141.471236518927,0.298303427304497,-141.172933091622,-70.8847699731157,141.322084805275,-70.437314832159
0.996325913118651,111.025898174732,0.436244275638012,-110.589653899094,-55.7310712251851,110.807776036913,-55.076704811728
0.998487140695915,76.8885556497052,0.633565277194627,-76.2549903725105,-38.7610604634499,76.5717730111079,-37.810712547658
1.00064836827318,42.9856934276179,0.831186012245785,-42.1545074153722,-21.9084397199319,42.5701004214951,-20.6616607015632
1.00280959585044,12.661303958052,0.996288080453507,-11.6650158775985,-6.82879601925277,12.1631599178253,-5.33436389857251
1.00497082342771,-11.8430803146174,1.11768265778913,12.9607629724065,5.36269882841413,-12.401921643512,7.03922281509783
1.00713205100497,-29.5089047249238,1.18581154330299,30.6947162682268,14.1615465908104,-30.1018104965753,15.9402639057649
1.00929327858223,-40.3218531008203,1.19363363607234,41.5154867368926,19.564109732374,-40.9186699188565,21.3545601864825
1.0114545061595,-44.9500090157511,1.14219746993981,46.0922064856909,21.9039057729056,-45.521107750721,23.6172019778154
1.01361573373676,-44.4871062833237,1.0285174928994,45.5156237762231,21.7292943952122,-45.0013650297734,23.2720706345613
1.01577696131403,-40.2950922145079,0.83907633168167,41.1341685461895,19.7280079414131,-40.7146303803487,20.9866224389356
1.01793818889129,-33.8958709874122,0.56095928060345,34.4568302680157,16.6674558534044,-34.176350627714,17.5088947743096
1.02009941646855,-26.8347644649943,0.199833659047429,27.0345981240417,13.3174654029734,-26.934681294518,13.6172158915446
1.02226064404582,-20.49346423574,-0.183797193205103,20.3096670425349,10.3386307144725,-20.4015656391374,10.0629349246649
1.02442187162308,-15.8992284771365,-0.468140077948878,15.4310883991876,8.18368427754269,-15.6651584381621,7.48147416061937
1.02658309920035,-13.5808234584627,-0.544713760932211,13.0361096975305,7.06276860969747,-13.3084665779966,6.24569796829915
1.02874432677761,-13.5057074570457,-0.395493016785647,13.1102144402601,6.95060023691569,-13.3079609486529,6.35736071173722
1.03090555435487,-15.1563099065762,-0.104061490342991,15.0522484162332,7.63018569845959,-15.1042791614047,7.4740934629451
1.03306678193214,-17.7664403334666,0.192591755085013,17.9590320885516,8.78692428919077,-17.8627362110091,9.07581192181829
1.0352280095094,-20.5974325119862,0.382284360450599,20.9797168724368,10.1075740757678,-20.7885746922115,10.6810006164437
1.03738923708667,-23.0914257842842,0.419852798177503,23.5112785824617,11.3357864930533,-23.3013521833729,11.9655656903196
1.03955046466393,-24.8632033921833,0.32399013400936,25.1871935261926,12.2696066290869,-25.0251984591879,12.755591830101
1.04171169224119,-25.6157764976934,0.167030273562793,25.7828067712562,12.7243731120653,-25.6992916344748,12.9749185224095
1.04387291981846,-25.1105406628871,0.0395839176522401,25.1501245805393,12.5354783726174,-25.1303326217132,12.5948542490958
1.04603414739572,-23.2548092038014,-0.00873639695080142,23.2460728068506,11.6317728003761,-23.250441005326,11.6186682049499
1.04819537497298,-20.2153532650361,-0.000438845923910858,20.2149144191122,10.10789605548,-20.2151338420742,10.1072377865942
1.05035660255025,-16.4460835552135,-0.00172098333123039,16.4443625718823,8.22390226927239,-16.4452230635479,8.22132079427554
1.05251783012751,-12.6243978206212,-0.0625138993362306,12.5618839212849,6.3434558599787,-12.5931408709531,6.24968501097435
1.05467905770478,-9.48716879122215,-0.184994958800788,9.30217383242136,4.83608187501147,-9.39467131182175,4.55858943681028
1.05684028528204,-7.58848086462397,-0.329278415283314,7.25920244934065,3.95887963995364,-7.42384165698231,3.46496201702867
1.0590015128593,-7.13098820047403,-0.438728498884652,6.69225970158938,3.78485834967934,-6.9116239510317,3.12676560135236
1.06116274043657,-7.94985255568069,-0.475646181863439,7.47420637381725,4.21274936877206,-7.71202946474897,3.4992800959769
1.06332396801383,-9.59779728075996,-0.436290378157562,9.16150690260239,5.01704382945876,-9.37965209168117,4.36260826222242
1.0654851955911,-11.5070844667583,-0.3420790770315,11.1650053897268,5.92458177189491,-11.3360449282426,5.41146315634766
1.06764642316836,-13.1855296875167,-0.230526865541133,12.9550028219755,6.7080282765289,-13.0702662547461,6.3622379782172
1.06980765074562,-14.3444981361691,-0.150192191192854,14.1943059449762,7.24734516368097,-14.2694020405727,7.02205687689169
1.07196887832289,-14.9051135525522,-0.150860936531454,14.7542526160208,7.52798724454185,-14.8296830842865,7.30169583974466
1.07413010590015,-14.9255341978084,-0.248134893030279,14.6773993047781,7.58683454541934,-14.8014667512933,7.21463220587392
1.07629133347742,-14.5175651275026,-0.388398584163196,14.1291665433394,7.45298185583289,-14.323365835421,6.87038397958809
1.07845256105468,-13.7637033664256,-0.471576393203829,13.2921269732218,7.11763987981472,-13.5279151698237,6.41027529000898
1.08061378863194,-12.6464853362683,-0.418161280756293,12.228324055512,6.53232330851229,-12.4374046958901,5.90508138737785
1.08277501620921,-11.0549667173286,-0.217500507455298,10.8374662098733,5.63623361239195,-10.946216463601,5.309982851209
1.08493624378647,-8.88654370425931,0.0780558033874421,8.96459950764675,4.40424395043593,-8.92557160595303,4.5213276555171
1.08709747136373,-6.1629732879148,0.389137044627866,6.55211033254267,2.88691812164347,-6.35754181022874,3.47062368858527
1.089258698941,-3.08350650190608,0.638347767278283,3.72185426918436,1.2225793673139,-3.40268038554522,2.18010101823132
1.09141992651826,-0.0212926314563688,0.77773421687007,0.799026848326439,-0.37822079270685,-0.410159739891404,0.788380532598254
1.09358115409553,2.54348237797181,0.814421035493047,-1.72906134247877,-1.67895170673243,2.13627186022529,-0.45732015349286
1.09574238167279,4.18924742761455,0.791854663141606,-3.39739276447295,-2.49055104537808,3.79332009604375,-1.30276905066567
1.09790360925005,4.74334073275599,0.732810443525503,-4.01053028923049,-2.73807558814075,4.37693551099324,-1.63885992285249
1.10006483682732,4.35360385553858,0.628729203293152,-3.72487465224543,-2.49116652941587,4.03923925389201,-1.54807272447614
1.10222606440458,3.39024864088154,0.490972678960507,-2.89927596192103,-1.94061065992102,3.14476230140128,-1.20415164148026
1.10438729198185,2.26690818932354,0.365267240208232,-1.90164094911531,-1.31608771476589,2.08427456921943,-0.76818685445354
1.10654851955911,1.31685159126119,0.284746386269908,-1.03210520499128,-0.800798988765548,1.17447839812623,-0.373679409360686
1.10870974713637,0.7623257902871,0.251015956346993,-0.511309833940107,-0.506670873317047,0.636817812113604,-0.130146938796557
1.11087097471364,0.714578965022099,0.258390218563742,-0.456188746458357,-0.48648459179292,0.585383855740228,-0.0988992639473079
1.1130322022909,1.15602175856646,0.29730478662585,-0.85871697194061,-0.726663272596155,1.00736936525354,-0.28070609265738
1.11519342986817,1.91251350157041,0.325874027133024,-1.58663947443738,-1.11919376435172,1.7495764880039,-0.63038272365218
1.11735465744543,2.67575788803347,0.280235230170677,-2.39552265786279,-1.47799655910207,2.53564027294813,-1.05764371384606
1.11951588502269,3.12997104739374,0.149544343511648,-2.98042670388209,-1.63975769545269,3.05519887563791,-1.41544118018522
1.12167711259996,3.12377449176659,-0.00220337106675483,-3.12597786283334,-1.56078556034992,3.12487617729997,-1.56409061695005
1.12383834017722,2.76382962520269,-0.107559907460894,-2.87138953266358,-1.3281348588709,2.81760957893314,-1.48947472006224
1.12599956775448,2.37592315934629,-0.136950362721151,-2.51287352206744,-1.11948639831257,2.44439834070687,-1.3249119423943
1.12816079533175,2.36019390072514,-0.0852115845707155,-2.44540548529586,-1.13749115807721,2.4027996930105,-1.26530853493329
1.13032202290901,3.01606705228303,0.0307727668635058,-2.98529428541952,-1.52341990957327,3.00068066885127,-1.47726075927801
1.13248325048628,4.430223867937,0.162728962190229,-4.26749490574677,-2.29647641506362,4.34885938684189,-2.05238297177827
1.13464447806354,6.46389030415273,0.240396075750578,-6.22349422840215,-3.35214318995165,6.34369226627744,-2.99154907632579
1.1368057056408,8.80398268961566,0.220505516330538,-8.58347717328512,-4.5122441029731,8.69372993145039,-4.18148582847729
1.13896693321807,11.0479261551462,0.122047401317412,-10.9258787538288,-5.58498677823181,10.9869024544875,-5.4019156762557
1.14112816079533,12.8227735339643,-0.0127607272686805,-12.835534261233,-6.40500640334781,12.8291538975986,-6.42414749425083
1.1432893883726,13.9112810179506,-0.163114544671218,-14.0743955626218,-6.8740832366397,13.9928382902862,-7.11875505364652
1.14545061594986,14.3204578644862,-0.318626812299196,-14.6390846767854,-7.00091552609352,14.4797712706358,-7.47885574454232
1.14761184352712,14.2401252155318,-0.449276029021644,-14.6894012445535,-6.89542459325509,14.4647632300426,-7.56933863678755
1.14977307110439,13.8933499888782,-0.510100076318161,-14.4034500651963,-6.69162495628001,14.1484000270373,-7.45677507075725
1.15193429868165,13.3953150729157,-0.488749400029368,-13.8840644729451,-6.45328283644317,13.6396897729304,-7.18640693648722
1.15409552625891,12.762014615276,-0.423384337736298,-13.1853989530123,-6.16931513876987,12.9737067841442,-6.80439164537432
1.15625675383618,12.0294310478793,-0.356929435935742,-12.386360483815,-5.83625080597177,12.2078957658471,-6.37164495987538
1.15841798141344,11.3214178808953,-0.30070874659836,-11.6221266274937,-5.51035456714848,11.4717722541945,-5.96141768704602
1.16057920899071,10.8022071662237,-0.239787620627664,-11.0419947868514,-5.28120977279802,10.9221009765375,-5.64089120373952
1.16274043656797,10.5788879970737,-0.155984620346743,-10.7348726174205,-5.21145168836349,10.6568803072471,-5.4454286188836
1.16490166414523,10.6639270422317,-0.0571775636727507,-10.7211046059045,-5.30337473927948,10.6925158240681,-5.3891410847886
1.1670628917225,11.0583240133227,0.0269140997785293,-11.0314099135442,-5.54261905655061,11.0448669634334,-5.50224790688282
1.16922411929976,11.8585064243194,0.0829313418314932,-11.7755750824879,-5.97071888307546,11.8170407534037,-5.84632187032823
1.17138534687703,13.2272912267636,0.118398299144103,-13.1088929276195,-6.67284476295387,13.1680920771916,-6.49524731423771
1.17354657445429,15.2389227396103,0.144848502940094,-15.0940742366702,-7.69188562127518,15.1664984881402,-7.47461286686504
1.17570780203155,17.7515544540135,0.190932120069339,-17.5606223339442,-8.97124328704142,17.6560883939788,-8.68484510693741
1.17786902960882,20.410216243299,0.298294515702186,-20.1119217275968,-10.3542553795006,20.2610689854479,-9.9068136059473
1.18003025718608,22.7702853476248,0.463844985875558,-22.3064403617493,-11.6170651667502,22.538362854687,-10.9212976879369
1.18219148476335,24.4641602284497,0.618860918810976,-23.8452993096388,-12.5415105736304,24.1547297690443,-11.6132191954139
1.18435271234061,25.3393698634452,0.697511922078586,-24.6418579413666,-13.0184408927619,24.9906139024059,-11.972173009644
1.18651393991787,25.5137660162874,0.689152138108464,-24.8246138781789,-13.1014590771979,25.1691899472331,-12.0677308700352
1.18867516749514,25.3072711224495,0.614817127992715,-24.6924539944568,-12.9610441252211,24.9998625584531,-12.038818433232
1.1908363950724,25.0832988137851,0.498367480646238,-24.5849313331389,-12.7908331472157,24.834115073462,-12.0432819262463
1.19299762264967,25.0881221408021,0.366139262161686,-24.7219828786404,-12.7271307014819,24.9050525097213,-12.1779218082394
1.19515885022693,25.3612958156184,0.250270011277345,-25.111025804341,-12.8057829134479,25.2361608099797,-12.4303778965318
1.19732007780419,25.7625589485042,0.176093481209914,-25.5864654672943,-12.9693262148571,25.6745122078993,-12.7051859930422
1.19948130538146,26.1100006959599,0.148459472013888,-25.961541223946,-13.1292300839869,26.0357709599529,-12.9065408759661
1.20164253295872,26.331799635192,0.16386060204527,-26.1679390331467,-13.2478301186186,26.2498693341693,-13.0020392155507
1.20380376053598,26.5141254979984,0.224507877218421,-26.28961762078,-13.3693166876084,26.4018715593892,-13.0325548717808
1.20596498811325,26.8261479458588,0.314124318575692,-26.5120236272831,-13.5701361322173,26.669085786571,-13.0989496543537
1.20812621569051,27.3812393339239,0.370745675404824,-27.0104936585191,-13.8759925046644,27.1958664962215,-13.3198739915571
1.21028744326778,28.1181300617002,0.333376385121547,-27.7847536765787,-14.2257532234109,27.9514418691394,-13.7256886457286
1.21244867084504,28.7896378673957,0.214269066993475,-28.5753688004023,-14.5019534671946,28.682503333899,-14.1805498667044
1.2146098984223,29.093572912688,0.0902471660991595,-29.0033257465889,-14.5919100393936,29.0484493296385,-14.4565392902449
1.21677112599957,28.8526077913415,0.0351672238308502,-28.8174405675106,-14.4438875075862,28.8350241794261,-14.3911366718399
1.21893235357683,28.1008986138897,0.0643493136357143,-28.036549300254,-14.0826239637627,28.0687239570719,-13.9860999933091
1.2210935811541,27.0543033924744,0.132994256835209,-26.9213091356392,-13.5936488246548,26.9878062640568,-13.394157439402
1.22325480873136,25.9912505604225,0.187291756006131,-25.8039588044164,-13.0892711582143,25.8976046824195,-12.8083335242051
1.22541603630862,25.0885602455208,0.195474561857294,-24.8930856836635,-12.6420174036891,24.9908229645922,-12.3488055609031
1.22757726388589,24.3556422616654,0.13347391477252,-24.2221683468929,-12.244558088219,24.2889053042792,-12.0443472160602
1.22973849146315,23.7287121902215,-0.0200302846448577,-23.7487424748664,-11.8543409527883,23.738727332544,-11.8843863797556
1.23189971904042,23.199382979208,-0.265336933111787,-23.4647199123198,-11.4670230230481,23.3320514457639,-11.8650284227158
1.23406094661768,22.839547304869,-0.567752538130296,-23.4072998429993,-11.1358973833694,23.1234235739342,-11.9875261905648
1.23622217419494,22.6991242946509,-0.865751958873557,-23.5648762535244,-10.9166861678887,23.1320002740876,-12.215314106199
1.23838340177221,22.6840714043609,-1.09825791238446,-23.7823293167453,-10.7929067459882,23.2332003605531,-12.4402936145649
1.24054462934947,22.5479351373833,-1.22095181900888,-23.7688869563922,-10.6634916591872,23.1584110468878,-12.4949193877006
1.24270585692673,22.0059922048836,-1.20483560267213,-23.2108278075557,-10.4005783011057,22.6084100062197,-12.2078317051139
1.244867084504,20.8627027026659,-1.04384180086091,-21.9065445035268,-9.90943045090249,21.3846236030964,-11.4751931521939
1.24702831208126,19.0628827418904,-0.767994811227482,-19.8308775531179,-9.14744396533148,19.4468801475042,-10.2994361821727
1.24918953965853,16.6812658769793,-0.439194225038141,-17.1204601020174,-8.12103582597056,16.9008629894983,-8.77982716352777
1.25135076723579,13.9014663931677,-0.132819269721499,-14.0342856628892,-6.8843235617231,13.9678760280285,-7.08355246630535
1.25351199481305,11.0015125878783,0.0823427157531418,-10.9191698721251,-5.5419276518157,10.9603412300017,-5.41841357818599
1.25567322239032,8.33014702806381,0.160135231921794,-8.17001179614201,-4.2451411299928,8.25007941210291,-4.00493828211011
1.25783444996758,6.24440191362774,0.0886466099763641,-6.15575530365138,-3.16652426180205,6.20007860863956,-3.03355434683751
1.25999567754485,5.00323039953784,-0.0991102317486281,-5.10234063128647,-2.45206008389461,5.05278551541216,-2.60072543151755
1.26215690512211,4.65357501020586,-0.332029351894981,-4.98560436210084,-2.16077282915544,4.81958968615335,-2.65881685699791
1.26431813269937,4.97163300521584,-0.539183120403458,-5.51081612561929,-2.21622494240619,5.24122456541756,-3.02499962301138
1.26647936027664,5.48695897580052,-0.683980928768519,-6.17093990456904,-2.401489023516,5.82894944018478,-3.42746041666878
1.2686405878539,5.58559063232948,-0.753223751311187,-6.33881438364067,-2.41618344050915,5.96220250798508,-3.54601906747593
1.27080181543116,4.70601249569688,-0.727724216709288,-5.43373671240617,-1.9891441394938,5.06987460405153,-3.08073046455773
1.27296304300843,2.58681574096536,-0.588507234163887,-3.17532297512925,-0.999154253400738,2.88106935804731,-1.88191510464657
1.27512427058569,-0.573714274707157,-0.348616757476402,0.225097517230755,0.46116551609178,-0.399405895968956,-0.0617596201228232
1.27728549816296,-4.18510409899085,-0.0706319294462614,4.11447216954459,2.12786801421855,-4.14978813426772,2.02192012004916
1.27944672574022,-7.54486754884786,0.149363941364484,7.69423149021235,3.69775180374169,-7.6195495195301,3.92179771578841
1.28160795331748,-10.1525489663136,0.230405812377566,10.3829547786912,4.96107157696801,-10.2677518725024,5.30668029553436
1.28376918089475,-11.8869610728333,0.142609131014399,12.0295702038477,5.87217597090943,-11.9582656383405,6.08608966743103
1.28593040847201,-12.9792833245603,-0.0927030055320397,12.8865803190283,6.53599316504618,-12.9329318217943,6.39693865674812
1.28809163604928,-13.8173374962141,-0.407644591861431,13.4096929043527,7.11249104403776,-13.6135152002834,6.50102415624562
1.29025286362654,-14.7079758192441,-0.704510824228382,14.0034649950157,7.70624332173623,-14.3557204071299,6.64947708539365
1.2924140912038,-15.7298337012952,-0.895447386877176,14.834386314418,8.31264054408619,-15.2821100078566,6.96946946377043
1.29457531878107,-16.7425398171509,-0.931823933806159,15.8107158833447,8.83718187547851,-16.2766278502478,7.43944597476927
1.29673654635833,-17.5390139512751,-0.818174499690213,16.7208394515849,9.17859422548266,-17.12992670143,7.95133247594734
1.2988977739356,-18.0309775647534,-0.619951072954446,17.4110264917989,9.32546431885392,-17.7210020282762,8.39553770942225
1.30105900151286,-18.3221558543334,-0.441524978396276,17.8806308759371,9.38184041636485,-18.1013933651353,8.71955294877043
1.30322022909012,-18.6160551521704,-0.364148666128557,18.2519064860418,9.49010190914948,-18.4339808191061,8.94387890995664
1.30538145666739,-19.056548413765,-0.400529625848,18.656018787917,9.72853901980649,-18.856283600841,9.12774458103449
1.30754268424465,-19.6512101158665,-0.518093315758415,19.1331168001081,10.0846517158125,-19.3921634579873,9.30751174217484
1.30970391182191,-20.2973201975837,-0.677334141753946,19.6199860558297,10.4873271696688,-19.9586531267067,9.47132595703789
1.31186513939918,-20.8345516471844,-0.83485502837827,19.9996966188061,10.8347033377813,-20.4171241329952,9.58242079521392
1.31402636697644,-21.1078041513522,-0.948527998077454,20.1592761532748,11.0281660747148,-20.6335401523135,9.60537407759867
1.31618759455371,-21.0282656418406,-0.994076949033951,20.0341886928066,11.0111712954373,-20.5312271673236,9.52005587188633
1.31834882213097,-20.5863880239198,-0.973222131866429,19.6131658920534,10.7798050778931,-20.0997769579866,9.31997188009347
1.32051004970823,-19.8297313642422,-0.920770624077426,18.9089607401648,10.3752509941598,-19.3693460522035,8.99409505804369
1.3226712772855,-18.8475813375898,-0.893054373124411,17.9545269644654,9.87031785535711,-18.4010541510276,8.53073629567049
1.32483250486276,-17.764620933647,-0.92391009450211,16.8407108391449,9.34426551407457,-17.302665886396,7.95840037232141
1.32699373244003,-16.7302582421731,-0.996785090224303,15.7334731519488,8.8635216661987,-16.2318656970609,7.36834403086224
1.32915496001729,-15.8929308469725,-1.06560831843872,14.8273225285338,8.47926958270561,-15.3601266877531,6.88085710504752
1.33131618759455,-15.3643829869982,-1.08497040059349,14.2794125864047,8.22467669379583,-14.8218977867014,6.5972210929056
1.33347741517182,-15.2022906355255,-1.02361768142026,14.1786729541053,8.11295415847289,-14.6904817948154,6.57752763634251
1.33563864274908,-15.4134776073177,-0.875912320993027,14.5375652863247,8.14469496415538,-14.9755214468212,6.83082648266584
1.33779987032635,-15.9439337348259,-0.667733604086805,15.2762001307391,8.30583366945633,-15.6100669327825,7.30423326332613
1.33996109790361,-16.6669610751603,-0.451304813055257,16.2156562621051,8.55913294410779,-16.4413086686327,7.8821757245249
1.34212232548087,-17.4204402804376,-0.286907617391062,17.1335326630465,8.85367394891433,-17.2769864717421,8.42331252282774
1.34428355305814,-18.0684460871318,-0.207845167404769,17.860600919727,9.13814562726827,-17.9645235034294,8.82637787616112
1.3464447806354,-18.513145612885,-0.199322762371885,18.3138228505132,9.35623418762846,-18.4134842316991,9.05725004407063
1.34860600821266,-18.6629351462223,-0.217853424513872,18.4450817217084,9.44039428536806,-18.5540084339653,9.11361414859725
1.35076723578993,-18.4186675111568,-0.2286748643452,18.1899926468116,9.323671187751,-18.3043300789842,8.9806588912332
1.35292846336719,-17.6984645630029,-0.22316855689037,17.4752960061126,8.96081655994666,-17.5868802845578,8.6260637246111
1.35508969094446,-16.4745936728462,-0.20704357547664,16.2675500973696,8.34081862416144,-16.3710718851079,8.03025326094648
1.35725091852172,-14.799261351752,-0.183466871597422,14.6157944801546,7.49136411167471,-14.7075279159533,7.21616380427858
1.35941214609898,-12.8259566762036,-0.148654275213918,12.6773024009897,6.48730547570875,-12.7516295385966,6.26432406288788
1.36157337367625,-10.8146428657816,-0.099900863183601,10.7147420025979,5.45727186448258,-10.7646924341897,5.30742056970717
1.36373460125351,-9.07818661194437,-0.0445667711219144,9.03361984082246,4.56137669153314,-9.05590322638342,4.49452653485027
1.36589582883078,-7.88367764483873,0.00729251560180244,7.89097016044053,3.93819256461846,-7.88732390263963,3.94913133802117
1.36805705640804,-7.37125229037876,0.0441895205224936,7.41544181090126,3.66353138492813,-7.39334705064001,3.72981566571188
1.3702182839853,-7.52210740051061,0.0378561467775793,7.55996354728819,3.74212562686651,-7.5410354738994,3.79890984703288
1.37237951156257,-8.17058019141993,-0.0357047704369674,8.13487542098296,4.10314248092845,-8.15272780620145,4.049585325273
1.37454073913983,-9.04425856845953,-0.143143002643271,8.90111556581626,4.5937007855514,-8.97268706713789,4.37898628158649
1.3767019667171,-9.84474606977754,-0.200426613412496,9.64431945636505,5.02258634159502,-9.74453276307129,4.72194642147628
1.37886319429436,-10.3719317545907,-0.153218889385062,10.2187128652057,5.2625753219879,-10.2953223098982,5.03274698791031
1.38102442187162,-10.609278141298,-0.0316606892936646,10.5776174520043,5.32046941529582,-10.5934477966511,5.27297838135532
1.38318564944889,-10.6924104098924,0.08119970064923,10.7736101105417,5.30560535462161,-10.7330102602171,5.42740490559545
1.38534687702615,-10.7927626107906,0.134132177149238,10.9268947879398,5.32931521682066,-10.8598286993652,5.53051348254452
1.38750810460341,-11.0017310170826,0.157290708136222,11.1590217252188,5.4222201544732,-11.0803763711507,5.65815621667753
1.38966933218068,-11.2804878378948,0.221565784201414,11.5020536220962,5.52946102684671,-11.3912707299955,5.86180970314883
1.39183055975794,-11.5098845080566,0.358481431585748,11.8683659396423,5.57570153823542,-11.6891252238495,6.11342368561404
1.39399178733521,-11.6126007000625,0.512763063827214,12.1253637638897,5.54991881811766,-11.8689822319761,6.31906341385848
1.39615301491247,-11.6318860337212,0.572948182707818,12.204834216429,5.52946892550667,-11.9183601250751,6.38889119956839
1.39831424248973,-11.6840918869601,0.471868879551224,12.1559607665113,5.60611150370445,-11.9200263267357,6.31391482303129
1.400475470067,-11.863330515975,0.241963473070245,12.1052939890452,5.81068352145237,-11.9843122525101,6.17362873105774
1.40263669764426,-12.2068783675599,-0.0398784982203595,12.1669998693395,6.12337843289011,-12.1869391184497,6.06356068555957
1.40479792522153,-12.7035227430481,-0.321140676850892,12.3823820661972,6.51233170994951,-12.5429524046227,6.03062069467317
1.40695915279879,-13.3012629377203,-0.5682594662641,12.7330034714562,6.93476120199222,-13.0171332045883,6.08237200259607
1.40912038037605,-13.9205905148836,-0.731755150879213,13.1888353640044,7.3261728328814,-13.554712939444,6.22854010656258
1.41128160795332,-14.46592705852,-0.755124653685784,13.7108024048342,7.61052585610288,-14.0883647316771,6.4778388755742
1.41344283553058,-14.8247361142542,-0.608767588710724,14.2159685255434,7.71675185148244,-14.5203523198988,6.80360046841635
1.41560406310785,-14.874386593332,-0.312329331392541,14.5620572619395,7.59335796236227,-14.7182219276357,7.12486396527346
1.41776529068511,-14.5122456881942,0.0588711616082908,14.5711168498025,7.22668726329298,-14.5416812689984,7.31499400570541
1.41992651826237,-13.6956367011507,0.408186534929564,14.1038232360803,6.64372508311059,-13.8997299686155,7.25600488550494
1.42208774583964,-12.4758850797306,0.669169201917755,13.1450542816484,5.90335793890644,-12.8104696806895,6.90711174178307
1.4242489734169,-11.0226014437772,0.823235286824477,11.8458367306017,5.09968307847636,-11.4342190871894,6.33453600871307
1.42641020099416,-9.62640228008684,0.888432610251947,10.5148348903388,4.36898483491745,-10.0706185852128,5.70163375029537
1.42857142857143,-8.63047139741384,0.887350250123609,9.51782164753744,3.87156057364511,-9.07414652247564,5.20258594883053
1.43073265614869,-8.27437172961766,0.817153827449485,9.09152555706715,3.72860895108409,-8.6829486433424,4.95433969225832
1.43289388372596,-8.55881121029288,0.666875085732579,9.22568629602546,3.94596806228015,-8.89224875315917,4.94628069087902
1.43505511130322,-9.2368696658698,0.464155035504788,9.70102470137459,4.3863573151825,-9.46894718362219,5.08258986843969
1.43721633888048,-9.9321524682077,0.275886703742603,10.2080391719503,4.82813288223255,-10.070095820079,5.24196293784645
1.43937756645775,-10.3311059961371,0.15453686156925,10.4856428577064,5.08828456728393,-10.4083744269217,5.3200898596378
1.44153879403501,-10.3359546826085,0.106711487033083,10.4426661696416,5.11462159778772,-10.3893104261251,5.27468882833734
1.44370002161228,-10.0613901220612,0.103783429765002,10.1651735518262,4.9788033461481,-10.1132818369437,5.13447849079561
1.44586124918954,-9.70677804146883,0.0993125591865891,9.80609060065542,4.80373274114112,-9.75643432106212,4.952701579921
1.4480224767668,-9.43729596382887,0.049135075254567,9.48643103908343,4.69408044428715,-9.46186350145615,4.767783057169
1.45018370434407,-9.31978606368884,-0.0685446719710868,9.25124139171776,4.69416536782997,-9.2855137277033,4.59134835987334
1.45234493192133,-9.29085256276838,-0.24160472209494,9.04924784067344,4.76622864243166,-9.17005020172091,4.40382155928925
1.4545061594986,-9.18141615434033,-0.419716322260117,8.76169983208021,4.80056623830022,-8.97155799321027,4.17099175491005
1.45666738707586,-8.81901450154736,-0.53001766538405,8.28899683616331,4.67451608346571,-8.55400566885534,3.87948958538963
1.45882861465312,-8.1433000810858,-0.516375042862668,7.62692503822313,4.32983756197423,-7.88511255965446,3.55527499768023
1.46098984223039,-7.247011604323,-0.366778712634177,6.88023289168882,3.80689515847859,-7.06362224800591,3.25672708952732
1.46315106980765,-6.33975446924148,-0.109632007036017,6.23012246220546,3.22469323813875,-6.28493846572347,3.06024522758472
1.46531229738491,-5.68506801865499,0.202737455432976,5.88780547408796,2.74116528161101,-5.78643674637148,3.04527146476047
1.46747352496218,-5.52389968769933,0.507914387776739,6.03181407547607,2.5079926499613,-5.7778568815877,3.26986423162641
1.46963475253944,-5.97651454661849,0.737154637018991,6.71366918363748,2.61967995479975,-6.34509186512798,3.72541191032824
1.47179598011671,-6.96926486380617,0.837193279367981,7.80645814317415,3.06603579221909,-7.38786150349016,4.32182571127106
1.47395720769397,-8.25911780760769,0.820699894739912,9.07981770234761,3.71920895643389,-8.66946775497765,4.95025879854376
1.47611843527123,-9.54980639072925,0.773444440657063,10.3232508313863,4.38818097503609,-9.93652861105778,5.54834763602169
1.4782796628485,-10.6125785303384,0.782562305486719,11.3951408358252,4.91500811242586,-11.0038596830818,6.08885157065593
1.48044089042576,-11.3404190020523,0.856187982045345,12.1966069840976,5.24211551000346,-11.7685129930749,6.52639748307147
1.48260211800303,-11.7362320035601,0.922138034236092,12.6583700377962,5.40704698466199,-12.1973010206781,6.79025403601613
1.48476334558029,-11.8681029248753,0.904984073729436,12.7730869986048,5.48155942557294,-12.32059496174,6.8390355361671
1.48692457315755,-11.8224340404691,0.798347258505276,12.6207812989743,5.51204339098189,-12.2216076697217,6.7095642787398
1.48908580073482,-11.685628470534,0.655500468363317,12.3411289388973,5.51506400108532,-12.0133787047156,6.49831470363029
1.49124702831208,-11.5419097606619,0.516439058456457,12.0583488191183,5.5127353511027,-11.8001292898901,6.28739393878739
1.49340825588935,-11.4512046048907,0.378741243369063,11.8299458482597,5.5362316807608,-11.6405752265752,6.1043435458144
1.49556948346661,-11.4234601449355,0.238702006332042,11.6621621512676,5.59237906930174,-11.5428111481016,5.95043207879981
1.49773071104387,-11.4138607184166,0.115406494400449,11.529267212817,5.64922711200807,-11.4715639656168,5.82233685360875
1.49989193862114,-11.326986926154,0.0169263059877485,11.3439132321418,5.65503031008313,-11.3354500791479,5.68041976906476
1.5020531661984,-11.0337363104689,-0.0886686702970839,10.9450676401719,5.56120249038301,-10.9894019753204,5.42819948493739
1.50421439377566,-10.4483495091433,-0.245423359181022,10.2029261499622,5.34688643416214,-10.3256378295528,4.97875139539061
1.50637562135293,-9.65560178945143,-0.463218891354132,9.1923828980973,5.05941034040278,-9.42399234377437,4.36458200337159
1.50853684893019,-8.9351419093961,-0.702938705545587,8.23220320385052,4.81904030747084,-8.58367255662331,3.76463224915247
1.51069807650746,-8.59441029745202,-0.904420401156022,7.689989896296,4.74941534930402,-8.14220009687401,3.39278474756999
1.51285930408472,-8.76496784249298,-1.03070135014185,7.73426649235113,4.89783459631741,-8.24961716742205,3.35178257110464
1.51502053166198,-9.35078009863009,-1.08030825039882,8.27047184823127,5.21554417451446,-8.81062597343068,3.59508179891623
1.51718175923925,-10.1196312800396,-1.07020550847456,9.04942577156505,5.59491839425709,-9.58452852580233,3.98961013154524
1.51934298681651,-10.8161005253333,-1.02459397183172,9.79150655350155,5.9203472485825,-10.3038035394174,4.38345629083491
1.52150421439378,-11.253655120932,-0.974367017055394,10.2792881038766,6.11401106899368,-10.7664716124043,4.65246054341059
1.52366544197104,-11.3808120952492,-0.948044838481373,10.4327672567679,6.16442846686531,-10.9067896760086,4.74236120914325
1.5258266695483,-11.2776010605536,-0.946257243367411,10.3313438171862,6.1119291519605,-10.8044724388699,4.69254328690938
1.52798789712557,-11.092889172455,-0.938424919936108,10.1544642525189,6.01565704619557,-10.623676712487,4.60801966629141
1.53014912470283,-10.9644552584592,-0.898796358738311,10.0656588997209,5.93162580859874,-10.51505707909,4.58343127049127
1.5323103522801,-10.9471472253714,-0.831399516147904,10.1157477092235,5.88927337075966,-10.5314474672975,4.6421740965378
1.53447157985736,-10.9976610321322,-0.762054892163306,10.2356061399689,5.87985796214774,-10.6166335860505,4.73677562390278
1.53663280743462,-11.0232215608439,-0.708909192961392,10.3143123678825,5.86606537690262,-10.6687669643632,4.80270158746053
1.53879403501189,-10.9554592025151,-0.64793801157787,10.3075211909373,5.8016986070465,-10.6314901967262,4.8297915896797
1.54095526258915,-10.8080761841268,-0.524894671516026,10.2831815126108,5.66648542782143,-10.5456288483688,4.87914342054739
1.54311649016641,-10.6586451092169,-0.320836935035392,10.3378081741816,5.48974102212617,-10.4982266416993,5.00848561957308
1.54527771774368,-10.5657371337907,-0.0984739667654284,10.4672631670252,5.33210555027804,-10.5165001504079,5.1843946001299
1.54743894532094,-10.5157516575306,0.0341295985594724,10.5498812560901,5.24081102948558,-10.5328164568104,5.29200542732479
1.54960017289821,-10.4370382464742,0.0176393697942884,10.4546776162685,5.20969943833995,-10.4458579313713,5.23615849303139
1.55176140047547,-10.2419939899606,-0.1216382559862,10.1203557339744,5.18181612297339,-10.1811748619675,4.99935873899409
1.55392262805273,-9.84438837509668,-0.317217454972391,9.52717092012429,5.08080291503453,-9.68577964761048,4.60497673257595
1.55608385563,-9.14181202460654,-0.493497530969098,8.64831449363744,4.81765477778782,-8.89506325912199,4.07740848133417
1.55824508320726,-8.03452578713575,-0.580921785878843,7.45360400125691,4.3077237865073,-7.74406489419633,3.43634110768903
1.56040631078453,-6.50588722480603,-0.555209520940613,5.95067770386542,3.53054837287332,-6.22828246433572,2.6977340914624
1.56256753836179,-4.66647246235036,-0.44789610014264,4.21857636220772,2.5571842812465,-4.44252441227904,1.88534013103254
1.56472876593905,-2.71536988683389,-0.307064545459361,2.40830534137453,1.51121721614662,-2.56183761410421,1.05062039795758
1.56688999351632,-0.873324961427995,-0.164489226929438,0.708835734498558,0.518907094178716,-0.791080347963276,0.27217325378456
1.56905122109358,0.663923657822306,-0.0294941237295323,-0.693417781551838,-0.317214767046387,0.678670719687072,-0.361455952640685
1.57121244867084,1.73531956364342,0.110003259795121,-1.62531630384829,-0.922661411719268,1.68031793374585,-0.757656522026586
1.57337367624811,2.22705430466192,0.263158265868098,-1.96389603879382,-1.24510628526501,2.09547517172787,-0.85036888646286
1.57553490382537,2.13592013976997,0.405961909130533,-1.72995823063944,-1.27094102445025,1.9329391852047,-0.661998160754452
1.57769613140264,1.61623307656881,0.514150552360629,-1.10208252420818,-1.06519181446472,1.3591578003885,-0.293965985923777
1.5798573589799,0.911371160006638,0.597070980792907,-0.314300179213731,-0.754221070399772,0.612835669610185,0.141385400789588
1.58201858655716,0.222431398246762,0.653260913789278,0.430829515542516,-0.43784615601802,-0.104199058647877,0.542045214665897
1.58417981413443,-0.341370237414777,0.651662404751188,0.993032642165965,-0.155146083668205,-0.667201439790371,0.822347523458577
1.58634104171169,-0.706125588185614,0.579434758031593,1.28556034621721,0.0633454150770107,-0.99584296720141,0.9324975521244
1.58850226928896,-0.78023649004494,0.465559097006434,1.24579558705137,0.157338696519253,-1.01301603854816,0.855677342028904
1.59066349686622,-0.47729032913038,0.3572899761837,0.83458030531408,0.06000017647334,-0.65593531722223,0.59593514074889
1.59282472444348,0.223623721299534,0.27092929739053,0.0473055760909965,-0.247276509345032,0.0881590726042686,0.159117436740763
1.59498595202075,1.26669317697262,0.16664549565886,-1.10004768131376,-0.716669336315741,1.18337042914319,-0.466701092827451
1.59714717959801,2.57304781465088,-0.00157997577219016,-2.57462779042307,-1.28573391943934,2.57383780253697,-1.28810388309763
1.59930840717528,4.05905660996533,-0.222662118335132,-4.28171872830046,-1.9181972458151,4.1703876691329,-2.2521904233178
1.60146963475254,5.57427243382257,-0.436490314645827,-6.0107627484684,-2.56889105958837,5.79251759114548,-3.22362653155711
1.6036308623298,6.87245167465407,-0.579865725053368,-7.45231739970744,-3.14629297480035,7.16238453718076,-4.0160915623804
1.60579208990707,7.69911908413746,-0.610598831399035,-8.30971791553649,-3.54426012636921,8.00441849983697,-4.46015837346776
1.60795331748433,7.92201330202218,-0.514051786044098,-8.43606508806628,-3.70398075798904,8.17903919504423,-4.47505843705519
1.6101145450616,7.58353587158748,-0.306904937941262,-7.89044080952874,-3.63831546682311,7.73698834055811,-4.098672873735
1.61227577263886,6.83867814622573,-0.0392495429473239,-6.87792768917306,-3.39971430163921,6.8583029176994,-3.45858861606019
1.61443700021612,5.85772225079096,0.217977352105892,-5.63974489868507,-3.03784980144843,5.74873357473802,-2.71088377328959
1.61659822779339,4.77058511028177,0.392663892637079,-4.37792121764469,-2.58162450145942,4.57425316396323,-1.9926286625038
1.61875945537065,3.62368712297175,0.420869844149342,-3.20281727882241,-2.02227848356054,3.41325220089708,-1.39097371733653
1.62092068294791,2.34015081669616,0.28019012840053,-2.05996068829563,-1.31017047254834,2.20005575249589,-0.889885279947548
1.62308191052518,0.76091577874138,0.0282425920304326,-0.732673186710947,-0.394579185385906,0.746794482726163,-0.352215297340257
1.62524313810244,-1.23440190372556,-0.233407928942959,1.0009939747826,0.733904916334258,-1.11769793925408,0.38379302291982
1.62740436567971,-3.62751297201746,-0.438915694230842,3.18859727778661,2.03321433312415,-3.40805512490203,1.37484079177789
1.62956559325697,-6.23413929722412,-0.589411126224623,5.6447281709995,3.41177521172437,-5.93943373411181,2.52765852238744
1.63172682083423,-8.74701831685149,-0.722927566806028,8.02409075004546,4.73497294182876,-8.38555453344848,3.65058159161972
1.6338880484115,-10.8293391740195,-0.864410509372086,9.9649286646474,5.84687484169578,-10.3971339193334,4.55025907763766
1.63604927598876,-12.224161143309,-0.995073297672575,11.2290878456364,6.60961722049077,-11.7266244944727,5.11700727398191
1.63821050356603,-12.8640973718148,-1.06336961186336,11.8007277599514,6.96373349183905,-12.3324125658831,5.36867907404402
1.64037173114329,-12.9412627949151,-1.02728370603729,11.9139790888778,6.98427325047621,-12.4276209418965,5.44334769142027
1.64253295872055,-12.8656547403663,-0.89036675717485,11.9752879831914,6.87801074877056,-12.4204713617788,5.54246061300829
1.64469418629782,-13.1083732903032,-0.710473723631706,12.3978995666715,6.90942350696745,-12.7531364284873,5.84371292151989
1.64685541387508,-14.0039954276451,-0.574679191937857,13.4293162357072,7.28933730979148,-13.7166558316762,6.42731852188469
1.64901664145235,-15.6003481942737,-0.536632485310498,15.0637157089632,8.06849033979211,-15.3320319516185,7.26354161182636
1.65117786902961,-17.6364492220022,-0.568940068312484,17.0675091536897,9.10269464515735,-17.351979187846,8.24928454268863
1.65333909660687,-19.6682880336628,-0.590962880416553,19.0773251532462,10.1296254570397,-19.3728065934545,9.24318113641483
1.65550032418414,-21.2564714107798,-0.533138606778462,20.7233328040013,10.8948050087791,-20.9899021073906,10.0950970986114
1.6576615517614,-22.1142868409984,-0.373212430131301,21.7410744108671,11.2437496355649,-21.9276806259328,10.6839309903679
1.65982277933866,-22.173422418293,-0.13716350423017,22.0362589140628,11.1552929612616,-22.1048406661779,10.9495477049163
1.66198400691593,-21.5553866944999,0.121864852477623,21.6772515469776,10.7167609210112,-21.6163191207387,10.8995581997276
1.66414523449319,-20.4792441486951,0.350704321803633,20.8299484704987,10.0642699134457,-20.6545963095969,10.5903263961512
1.66630646207046,-19.1796008753856,0.526886447572535,19.7064873229581,9.32635721390652,-19.4430440991718,10.1166868852653
1.66846768964772,-17.8595963380165,0.673241296619419,18.5328376346359,8.59317752069856,-18.1962169863262,9.60303946562768
1.67062891722498,-16.6547608031107,0.817829701713824,17.4725905048245,7.91846555069842,-17.0636756539676,9.14521010326915
1.67279014480225,-15.6198277376362,0.944925932310272,16.5647536699464,7.33745090266294,-16.0922907037913,8.75483980112835
1.67495137237951,-14.766687366972,1.00551832754187,15.7722056945138,6.88058451971506,-15.2694465307429,8.38886201102786
1.67711259995678,-14.1405467851734,0.959765407551341,15.1003121927248,6.59039068881105,-14.6204294889491,8.03003880013807
1.67927382753404,-13.866232593078,0.802252971699194,14.6684855647772,6.53198981068941,-14.2673590789276,7.7353692682382
1.6814350551113,-14.1010205483102,0.566474073810418,14.6674946221206,6.7672732372499,-14.3842575852154,7.61698434796553
1.68359628268857,-14.9308741804877,0.308753064076194,15.2396272445639,7.31106055820576,-15.0852507125258,7.77419015432005
1.68575751026583,-16.3155006582062,0.0752139298939365,16.3907145881002,8.12014336415614,-16.3531076231532,8.23296425899705
1.68791873784309,-18.1174336489605,-0.111628555388535,18.005805093572,9.11453110217451,-18.0616193712662,8.94708826909171
1.69007996542036,-20.1489902981745,-0.238691611953457,19.9102986862211,10.193840955064,-20.0296444921978,9.8358035371338
1.69224119299762,-22.19570963494,-0.303161481094616,21.8925481538454,11.2494355580173,-22.0441288943927,10.7946933363754
1.69440242057489,-24.0432454693893,-0.323811050999062,23.7194344183902,12.1835282601942,-23.8813399438897,11.6978116836956
1.69656364815215,-25.5085537441105,-0.334013507038274,25.1745402370723,12.9212836255744,-25.3415469905914,12.420263365017
1.69872487572941,-26.4192313715847,-0.366511496709671,26.052719874875,13.3928714341472,-26.2359756232299,12.8431041890827
1.70088610330668,-26.5078372854639,-0.427830530498971,26.0800067549649,13.4678339079814,-26.2939220202144,12.826088112233
1.70304733088394,-25.2545792336759,-0.483593312809157,24.7709859208667,12.8690862732425,-25.0127825772713,12.1436963040288
1.70520855846121,-21.7575282847084,-0.489057143916452,21.268471140792,11.1232927143124,-21.5129997127502,10.3897069984378
1.70736978603847,-14.7761512082108,-0.42078188570402,14.3553693225068,7.59846654695743,-14.5657602653588,6.9672937184014
1.70953101361573,-3.03879303984496,-0.277551778725143,2.76124126111982,1.65817240928505,-2.90001715048239,1.24184474119734
1.711692241193,14.3016260742231,-0.0809809744271954,-14.3826070486503,-7.11032254989796,14.3421165614367,-7.23179401153875
1.71385346877026,37.2422729704915,0.118452041871514,-37.12382092862,-18.6803625061815,37.1830469495558,-18.5026844433743
1.71601469634753,64.6713252760143,0.254953948020357,-64.416371327994,-32.4631396120174,64.5438483020042,-32.0807086899868
1.71817592392479,94.3817989267151,0.28431639008025,-94.0974825366349,-47.3330576583977,94.239640731675,-46.9065830732773
1.72033715150205,123.333653149286,0.213885320990786,-123.119767828296,-61.7737692351386,123.226710488791,-61.4529412536524
1.72249837907932,148.053880588033,0.0994485197026267,-147.954432068331,-74.076664553868,148.004156328182,-73.9274917743141
1.72465960665658,165.154304552394,0.00856206501524182,-165.145742487378,-82.5814333087044,165.150023519886,-82.5685902111816
1.72682083423384,171.950664555161,-0.0241796976921504,-171.974844252853,-85.9632424287342,171.962754404007,-85.9995119752724
1.72898206181111,167.027981029411,-0.0136658096872182,-167.041646839098,-83.5071576098617,167.034813934254,-83.5276563243926
1.73114328938837,150.570530130526,0.00228776418428023,-150.568242366342,-75.2864089473552,150.569386248434,-75.2829773010788
1.73330451696564,124.360847806087,0.00963587534462107,-124.351211930742,-62.1852418407159,124.356029868415,-62.1707880276989
1.7354657445429,91.4367585317459,0.0288443877231948,-91.4079141440227,-45.7328014597346,91.4223363378843,-45.6895348781498
1.73762697212016,55.5091119461677,0.0732858897868425,-55.4358260563808,-27.7911989179773,55.4724690012742,-27.681270083297
1.73978819969743,20.3361766447778,0.118329274596809,-20.217847370181,-10.2272529596873,20.2770120074794,-10.0497590477921
1.74194942727469,-10.7908547947642,0.127145983802105,10.9180007785663,5.33185440548103,-10.8544277866652,5.52257338118419
1.74411065485196,-35.4212387032996,0.0942122656641042,35.5154509689637,17.6635132188177,-35.4683448361316,17.8048316173139
1.74627188242922,-52.1867480487763,0.050511932246349,52.2372599810226,26.068118058265,-52.2120040148995,26.1438859566345
1.74843311000648,-60.870862338344,0.036298403311696,60.9071607416557,30.4172819675161,-60.8890115399998,30.4717295724837
1.75059433758375,-62.2833837231164,0.0799461681209406,62.3633298912373,31.1017187774977,-62.3233568071768,31.2216380296791
1.75275556516101,-57.9903995492288,0.191855533064849,58.1822550822937,28.899272008082,-58.0863273157613,29.1870553076793
1.75491679273828,-49.961445240737,0.359859020002153,50.3213042607391,24.8007931103674,-50.141374750738,25.3405816403706
1.75707802031554,-40.2227742707485,0.545462225292696,40.7682364960412,19.8386560227279,-40.4955053833949,20.656849360667
1.7592392478928,-30.6083298953227,0.693593907374715,31.3019238026974,14.957367993974,-30.9551268490101,15.9977588550361
1.76140047547007,-22.5925494878295,0.758772698882668,23.3513221867122,10.9168883944734,-22.9719358372709,12.0550474427974
1.76356170304733,-17.156286576132,0.734098003865115,17.8903845799971,8.21109428613342,-17.5233355780645,9.31224129193109
1.76572293062459,-14.7188298162601,0.65141712820914,15.3702469444692,7.03370634402548,-15.0445383803647,8.01083203633919
1.76788415820186,-15.1474516576991,0.536271353438074,15.6837230111372,7.30559015213051,-15.4155873344181,8.10999718228762
1.77004538577912,-17.8001575370437,0.379833925123204,18.1799914621669,8.71016180596026,-17.9900744996053,9.27991269364507
1.77220661335639,-21.6564799263555,0.183928129728661,21.8404080560842,10.7362758983134,-21.7484439912198,11.0121680929064
1.77436784093365,-25.6037415614643,0.00915250669077627,25.612894068155,12.7972945273867,-25.6083178148096,12.8110232874229
1.77652906851091,-28.7443446607929,-0.0506860233357305,28.6936586374571,14.3975153420643,-28.719001649125,14.3214863070607
1.77869029608818,-30.5513773442088,0.0679083319280465,30.6192856761368,15.2417345061404,-30.5853315101728,15.3435970040324
1.78085152366544,-30.8822793131393,0.348677478361735,31.2309567915011,15.2668009173888,-31.0566180523202,15.7898171349314
1.78301275124271,-29.9259547476075,0.685819088852131,30.6117738364597,14.6200678293777,-30.2688642920336,15.6487964626559
1.78517397881997,-28.0881318315379,0.932930543840606,29.0210623753785,13.5776006438486,-28.5545971034582,14.9769964596096
1.78733520639723,-25.8274205365721,0.977641495807329,26.8050620323794,12.4248895203824,-26.3162412844757,13.8913517640934
1.7894964339745,-23.522874609976,0.799682827158779,24.3225574371348,11.3615958914086,-23.9227160235554,12.5611201321468
1.79165766155176,-21.4244728568784,0.479391776075011,21.9038646329534,10.4725405404017,-21.6641687449159,11.1916282045142
1.79381888912903,-19.6834395306011,0.129623945383397,19.8130634759845,9.77690779260887,-19.7482515032928,9.97134371068397
1.79598011670629,-18.42652585274,-0.178385158554157,18.2481406941859,9.30245550564709,-18.3373332734629,9.03487776781586
1.79814134428355,-17.7823046005572,-0.415911845835562,17.3663927547217,9.0991082231964,-17.5743486776395,8.47524045444306
1.80030257186082,-17.8180211458851,-0.56483321396598,17.2531879319191,9.19142717992552,-17.5356045389021,8.34417735897656
1.80246379943808,-18.4585357812183,-0.608491289323513,17.8500444918948,9.53351353527092,-18.1542901365566,8.62077660128565
1.80462502701534,-19.4825577245878,-0.541858780160963,18.9406989444269,10.0122082523744,-19.2116283345073,9.19942008213295
1.80678625459261,-20.6032228841632,-0.384891475534951,20.2183314086283,10.4940571798491,-20.4107771463958,9.91671996654667
1.80894748216987,-21.5461639873714,-0.181703515281072,21.3644604720903,10.8639337513262,-21.4553122297308,10.5913784784046
1.81110870974714,-22.0896993198847,0.0105258398055003,22.1002251596902,11.0395867400396,-22.0949622397875,11.0553754997479
1.8132699373244,-22.072618343114,0.117894068332151,22.1905124114462,10.9773621373909,-22.1315653772801,11.1542032398892
1.81543116490166,-21.3835569205385,0.0651367117986947,21.4486936323372,10.6592101043699,-21.4161252764379,10.756915172068
1.81759239247893,-19.9982876484981,-0.155850799561795,19.8424368489363,10.07706922403,-19.9203622487172,9.84329302468727
1.81975362005619,-18.0217460188676,-0.446703016989189,17.5750430018784,9.23422451792839,-17.798394510373,8.5641699924446
1.82191484763346,-15.6437137693978,-0.662179860954681,14.9815339084432,8.15294681517626,-15.3126238389205,7.15967702374424
1.82407607521072,-13.0920463520584,-0.705946537742837,12.3860998143156,6.89899644490063,-12.739073083187,5.84007663828637
1.82623730278798,-10.6427597017601,-0.584875073263309,10.0578846284967,5.61381738751168,-10.3503221651284,4.73650477761672
1.82839853036525,-8.59194525488931,-0.393309646330398,8.19863560855891,4.49262745060985,-8.39529043172411,3.90266298111426
1.83055975794251,-7.17748309542515,-0.227621866470636,6.94986122895452,3.70255248094789,-7.06367216218983,3.36111968124194
1.83272098551978,-6.54181534046024,-0.112717339931437,6.4290980005288,3.32726634019584,-6.48545667049452,3.15819033029868
1.83488221309704,-6.72209407129559,-0.0269202381252992,6.69517383317029,3.37450715471044,-6.70863395223294,3.33412679752249
1.8370434406743,-7.59297716571985,0.0352422429591264,7.62821940867898,3.77886746138036,-7.61059828719941,3.83173082581905
1.83920466825157,-8.81319445692153,0.0549197326739828,8.86811418959551,4.37913736212377,-8.84065432325852,4.46151696113475
1.84136589582883,-9.88123666822185,0.0241335559939715,9.90537022421582,4.92855155611394,-9.89330344621884,4.9647518901049
1.84352712340609,-10.2937718419459,-0.027168736457168,10.2666031054887,5.16047028920152,-10.2801874737173,5.11971718451577
1.84568835098336,-9.72934506552239,-0.0528076922581797,9.67653737326421,4.89107637889028,-9.7029412193933,4.81186484050301
1.84784957856062,-8.16721323248569,-0.0452109517205844,8.1220022807651,4.10621209210314,-8.14460775662539,4.03839566452226
1.85001080613789,-5.86125037745018,-0.0392094366427894,5.82204094080739,2.95022990704649,-5.84164565912879,2.8914157520823
1.85217203371515,-3.20641154489496,-0.0482352797783937,3.15817626511656,1.62732341233667,-3.18229390500576,1.55497049266908
1.85433326129241,-0.618873643629378,-0.0413662898242013,0.577507353805177,0.33011996672679,-0.598190498717277,0.268070531990488
1.85649448886968,1.53639505575117,0.00458873100232382,-1.53180632474885,-0.770491893376748,1.53410069025001,-0.763608796873262
1.85865571644694,3.00406150608245,0.0803846693272325,-2.92367683675522,-1.54222308770484,2.96386917141883,-1.42164608371399
1.86081694402421,3.66709949029541,0.169085777402978,-3.49801371289243,-1.91809263384919,3.58255660159392,-1.66446396774473
1.86297817160147,3.53313725176357,0.251551732584715,-3.28158551917886,-1.89234449217414,3.40736138547121,-1.51501689329707
1.86513939917873,2.71829107349101,0.299542249237954,-2.41874882425306,-1.50891666136448,2.56851994887203,-1.05960328750755
1.867300626756,1.44011091869491,0.29829431401785,-1.14181660467706,-0.869202616356378,1.29096376168598,-0.421761145329602
1.86946185433326,-0.00749603515141928,0.271416839396939,0.278912874548358,-0.13196040212276,-0.143204454849889,0.275164856972648
1.87162308191053,-1.31560841535363,0.268240859589123,1.58384927494275,0.523683777882254,-1.44972884514819,0.926045067265938
1.87378430948779,-2.25253287593883,0.329258904217105,2.58179178015594,0.961636985860864,-2.41716232804739,1.45552534218652
1.87594553706505,-2.72436249153875,0.466959533232103,3.19132202477085,1.12870147915332,-2.9578422581548,1.82914077900148
1.87810676464232,-2.74183889633721,0.67087940364315,3.41271829998036,1.03547974634703,-3.07727859815879,2.04179885181176
1.88026799221958,-2.35509031326814,0.907076878164745,3.26216719143288,0.724006717551696,-2.80862875235051,2.08462203479881
1.88242921979684,-1.64995225925264,1.11300928511141,2.76296154436405,0.268471487070618,-2.20645690180835,1.93798541473773
1.88459044737411,-0.767512227526076,1.23090516040467,1.99841738793075,-0.231696466439298,-1.38296480772841,1.61466127416771
1.88675167495137,0.141496567321653,1.2435971826058,1.10210061528414,-0.692546874963724,-0.480302023981245,1.17284889894497
1.88891290252864,1.01482704523722,1.1535142994641,0.138687254226885,-1.08417067235066,0.438069895505167,0.646100776845494
1.8910741301059,1.91804175628357,0.953031564308818,-0.965010191974753,-1.43553666029619,1.44152597412916,-0.00598931383296741
1.89323535768316,2.96025081712087,0.644460957267777,-2.31578985985309,-1.80235588719432,2.63802033848698,-0.835664451292656
1.89539658526043,4.19315344991512,0.275140506697694,-3.91801294321743,-2.23414697830641,4.05558319656628,-1.82143621825987
1.89755781283769,5.60866804697642,-0.0714206162009243,-5.68008866317734,-2.76862371538775,5.64437835507688,-2.87575463968913
1.89971904041496,7.17955629631069,-0.315091752319924,-7.49464804863061,-3.43223227199538,7.33710217247065,-3.90486990047527
1.90188026799222,8.8562519651645,-0.40351942817255,-9.25977139333705,-4.22636626849597,9.05801167925077,-4.8316454107548
1.90404149556948,10.539573536941,-0.321508031023187,-10.8610815679642,-5.10903275295891,10.7003275524526,-5.5912947994937
1.90620272314675,12.1035261635705,-0.100913565911229,-12.2044397294817,-6.00130629882963,12.1539829465261,-6.15267664769647
1.90836395072401,13.4701524598995,0.185180850179698,-13.2849716097198,-6.82766665503961,13.3775620348097,-6.54989537977007
1.91052517830128,14.6412711387302,0.45789194499068,-14.1833791937395,-7.54958154186042,14.4123251662348,-6.8627436243744
1.91268640587854,15.6639103329744,0.662364662406177,-15.0015456705682,-8.16313749769026,15.3327280017713,-7.169590504081
1.9148476334558,16.5937423367695,0.763337151025093,-15.8304051857444,-8.6785397438973,16.212073761257,-7.53353401735967
1.91700886103307,17.46012791688,0.740049007920452,-16.7200789089596,-9.10008846240023,17.0901034129198,-7.99001495051956
1.91917008861033,18.2298247336883,0.601016893914559,-17.6288078397738,-9.41542081380144,17.929316286731,-8.5138954729296
1.92133131618759,18.8085840756885,0.391314129156166,-18.4172699465323,-9.59994910242233,18.6129270111104,-9.01297790868808
1.92349254376486,19.0778873040332,0.174127138786218,-18.903760165247,-9.6260072214097,18.9908237346401,-9.36481651323037
1.92565377134212,18.9561494608069,-0.0107198230240445,-18.9668692838309,-9.47271481889143,18.9615093723189,-9.4887945534275
1.92781499891939,18.4914580886185,-0.169135150061245,-18.6605932386797,-9.16116146927861,18.5760256636491,-9.41486419437047
1.92997622649665,17.908257836989,-0.324263628744095,-18.2325214657331,-8.79199710412244,18.070389651361,-9.27839254723859
1.93213745407391,17.5157240476277,-0.489349659248455,-18.0050737068762,-8.51318719418964,17.760398877252,-9.24721168306233
1.93429868165118,17.5537149158778,-0.664181980485392,-18.2178968963632,-8.44476646769621,17.8858059061205,-9.4410394384243
1.93645990922844,18.1049792362222,-0.814432463710147,-18.9194116999323,-8.645273386256,18.5121954680772,-9.86692208182122
1.93862113680571,19.0854933423743,-0.863512552879638,-19.9490058952539,-9.11099039474733,19.5172496188141,-10.4062592240668
1.94078236438297,20.2946524948619,-0.740256237800998,-21.0349087326629,-9.77719812853046,20.6647806137624,-10.887582485232
1.94294359196023,21.5072315437429,-0.43546408118505,-21.9426956249279,-10.5358837312789,21.7249635843354,-11.1890798530565
1.9451048195375,22.5517249961952,-0.0193151583933506,-22.5710401545885,-11.2662049189009,22.5613825753918,-11.2951776564909
1.94726604711476,23.3454206281167,0.38624044371931,-22.9591801843974,-11.865830535918,23.152300406257,-11.286469870339
1.94942727469203,23.8883226353033,0.673472582431006,-23.2148500528723,-12.2808976088672,23.5515863440878,-11.2706887352207
1.95158850226929,24.235146187408,0.803622899206149,-23.4315232882018,-12.5193845433071,23.8333347378049,-11.3139501944978
1.95374972984655,24.4811021404364,0.788839608794537,-23.6922625316419,-12.6349708746155,24.0866823360391,-11.4517114614237
1.95591095742382,24.746018147602,0.639934397727899,-24.1060837498741,-12.692976272665,24.4260509487381,-11.7330746760731
1.95807218500108,25.1264222277212,0.372754324798817,-24.7536679029224,-12.74958827626,24.9400450653218,-12.1904567890618
1.96023341257834,25.6586410345444,0.043445338936125,-25.6151956956083,-12.8510431867403,25.6369183650763,-12.7858751783361
1.96239464015561,26.3147307788701,-0.264688734868209,-26.5794195137383,-13.0250210220009,26.4470751463042,-13.4220541243033
1.96455586773287,26.9714739199868,-0.473009659484193,-27.444483579471,-13.2492321302513,27.2079787497289,-13.9587466194776
1.96671709531014,27.3681946250102,-0.529666898679012,-27.8978615236892,-13.4192638631656,27.6330280743497,-14.2137642111841
1.9688783228874,27.174886935473,-0.439167254437694,-27.6140541899107,-13.3678598405177,27.3944705626919,-14.0266107221742
1.97103955046466,26.1845456461044,-0.262616282367418,-26.4471619284718,-12.9609646818685,26.3158537872881,-13.3548891054196
1.97320077804193,24.4779174818336,-0.0598509929592897,-24.5377684747928,-12.2090332444371,24.5078429783132,-12.2988097338761
1.97536200561919,22.4107269323384,0.160535398850372,-22.2501915334881,-11.2856311655944,22.3304592329133,-11.0448280673188
1.97752323319646,20.4281571279595,0.411966015569482,-20.01619111239,-10.4200615717645,20.2221741201747,-9.80211254841025
1.97968446077372,18.8556210332468,0.658023703119377,-18.1975973301274,-9.75682236818308,18.5266091816871,-8.76978681350402
1.98184568835098,17.779808535124,0.814512174144648,-16.9652963609793,-9.29716035463432,17.3725524480517,-8.07539209341735
1.98400691592825,17.0373372816252,0.8456319378232,-16.191705343802,-8.94148460972418,16.6145213127136,-7.67303670298938
1.98616814350551,16.3151619014129,0.808655382831829,-15.5065065185811,-8.56190864212238,15.910834209997,-7.34892556787464
1.98832937108277,15.3148036764535,0.779598545249083,-14.5352051312044,-8.04720111085128,14.9250044038289,-6.87780329297766
1.99049059866004,13.8628030820515,0.783945756960991,-13.0788573250905,-7.32337441950623,13.470830203571,-6.14745578406474
1.9926518262373,11.9367922006372,0.814776605676752,-11.1220155949604,-6.37578440315696,11.5294038977988,-5.15361949464183
1.99481305381457,9.65539500015339,0.866830012072693,-8.7885649880807,-5.26111250611304,9.22197999411704,-3.960867488004
1.99697428139183,7.2119120262863,0.922692190540926,-6.28921983574537,-4.06730210841361,6.75056593101584,-2.68326382260222
1.99913550896909,4.76203480944404,0.943462341317302,-3.81857246812674,-2.85274857538067,4.29030363878539,-1.43755506340472
2.00129673654636,2.36824152895946,0.888726697797399,-1.47951483116206,-1.62848411337843,1.92387818006076,-0.295394066682331
2.00345796412362,0.0354622992090086,0.728468576788353,0.693006277579344,-0.381965437998681,-0.328771989185168,0.710737427183848
2.00561919170089,-2.22652732689574,0.466879668170164,2.69340699506591,0.879823829362789,-2.45996716098082,1.58014333161803
2.00778041927815,-4.37491347057497,0.156675508322902,4.53158897889788,2.10911898112604,-4.45325122473642,2.34413224361039
2.00994164685541,-6.34811318902033,-0.14270065022389,6.20541253879644,3.24540691962211,-6.27676286390839,3.03135594428628
2.01210287443268,-8.09717574469773,-0.397193382325043,7.69998236237269,4.24718456351139,-7.89857905353521,3.65139449002382
2.01426410200994,-9.60965577636509,-0.58433013464344,9.02532564172165,5.09699295550427,-9.31749070904337,4.22049775353911
2.01642532958721,-10.9119482631605,-0.688464416675258,10.2234838464853,5.80020633991789,-10.5677160548229,4.767509714905
2.01858655716447,-12.0510743436093,-0.713066788331034,11.3380075552782,6.38207056597015,-11.6945409494437,5.3124703834736
2.02074778474173,-13.0773057256019,-0.671043196446105,12.4062625291558,6.874174461024,-12.7417841273788,5.86760966635485
2.022909012319,-14.0470914239947,-0.570364097767097,13.4767273262276,7.30872776088089,-13.7619093751111,6.45318161423024
2.02507023989626,-15.0245299828926,-0.434399305649972,14.5901306772426,7.72946464427129,-14.8073303300676,7.07786568579633
2.02723146747353,-16.0478145219821,-0.303964679988855,15.7438498419932,8.17588960098546,-15.8958321819876,7.71994258100218
2.02939269505079,-17.0908831319605,-0.190477916533059,16.9004052154275,8.6406805242468,-16.995644173694,8.35496364944721
2.03155392262805,-18.0758348604178,-0.0587439161794671,18.0170909442383,9.06728938829862,-18.046462902328,8.97917351402942
2.03371515020532,-18.9150431196327,0.137942310088281,19.052985429721,9.38855040477223,-18.9840142746769,9.59546386990465
2.03587637778258,-19.5251138766056,0.40332650214716,19.9284403787528,9.56089368722922,-19.7267771276792,10.16588344045
2.03803760535984,-19.8254755622894,0.663106637956066,20.4885822002455,9.58118446216669,-20.1570288812675,10.5758444191008
2.04019883293711,-19.7859732411651,0.807717137456442,20.5936903786216,9.48912805185435,-20.1898318098934,10.700703758039
2.04236006051437,-19.5222391563319,0.766108468128235,20.2883476244601,9.37806534410184,-19.905293390396,10.5272280462942
2.04452128809164,-19.3167209048139,0.547961745439092,19.8646826502529,9.38437957968738,-19.5907017775334,10.206322197846
2.0466825156689,-19.479867784977,0.263913158513999,19.743780943491,9.60797731323151,-19.611824364234,10.0038470510025
2.04884374324616,-20.1703171366139,0.0706456331658432,20.2409627697798,10.049835751724,-20.2056399531969,10.1558042014728
2.05100497082343,-21.321212004123,0.0568006293737449,21.3780126334967,10.6322056873746,-21.3496123188099,10.7174066314352
2.05316619840069,-22.6626918537781,0.192809926005743,22.8555017797838,11.2349409638862,-22.759096816781,11.5241558528948
2.05532742597796,-23.7942284261961,0.367983008113432,24.1622114343096,11.7131227090413,-23.9782199302528,12.2650972212115
2.05748865355522,-24.29292021355,0.47559649424202,24.768516707792,11.908661859654,-24.530718460671,12.622056601017
2.05964988113248,-23.8365413463875,0.494186950785096,24.3307282971726,11.6711771978012,-24.08363482178,12.4124576239788
2.06181110870975,-22.3212816797214,0.473418223681432,22.7946999034028,10.92393172802,-22.5579907915621,11.6340590635421
2.06397233628701,-19.9339490240188,0.444340202723072,20.3782892267418,9.74480441064784,-20.1561191253803,10.4113147147325
2.06613356386428,-17.1269884371156,0.396731096622079,17.5237195337377,8.36512867024676,-17.3253539854266,8.96022531517988
2.06829479144154,-14.4922032485565,0.327742834324504,14.819946082881,7.08223020711599,-14.6560746657187,7.57384445860275
2.0704560190188,-12.5847809687258,0.246413742262507,12.8311947109883,6.16918361323166,-12.7079878398571,6.53880422662542
2.07261724659607,-11.7792705364446,0.151048574041523,11.9303191104861,5.81411098120153,-11.8547948234653,6.04068384226381
2.07477847417333,-12.2121966853195,0.0480669052670872,12.2602635905866,6.08206489002622,-12.2362301379531,6.15416524792685
2.07693970175059,-13.7864301894683,-0.0340349955621222,13.7523951939062,6.91023259251521,-13.7694126916872,6.85918009917203
2.07910092932786,-16.1962936297099,-0.071062990551588,16.1252306391583,8.13367831013075,-16.1607621344341,8.02708382430337
2.08126215690512,-18.980708159671,-0.0597977783318064,18.9209103813392,9.52025296900139,-18.9508092705051,9.43055630150368
2.08342338448239,-21.6062493102769,-0.0148093327218781,21.5914399775551,10.8105293214994,-21.598844643916,10.7883153224166
2.08558461205965,-23.5659312434671,0.025745573574089,23.5916768170412,11.7700928349465,-23.5788040302541,11.8087111953076
2.08774583963691,-24.4965023427045,0.00970149011798283,24.5062038328225,12.2434004262933,-24.5013530877635,12.2579526614702
2.08990706721418,-24.2851591582243,-0.0842608693056253,24.2008982889186,12.1847100137649,-24.2430287235715,12.0583187098065
2.09206829479144,-23.1071561903375,-0.215495970707154,22.8916602196304,11.6613260805223,-22.9994082049839,11.3380821244616
2.09422952236871,-21.3682574177858,-0.303653282432934,21.0646041353529,10.8359553501094,-21.2164307765694,10.38047542646
2.09639074994597,-19.5566015446492,-0.278306261195899,19.2782952834533,9.91745390292255,-19.4174484140513,9.4999945111287
2.09855197752323,-18.0611436830269,-0.126223121713852,17.934920561313,9.09368340237037,-17.99803212217,8.90434871979959
2.1007132051005,-17.0594150003483,0.0771929722360243,17.1366079725843,8.49111101405613,-17.0980114864663,8.60690047241017
2.10287443267776,-16.5254506582748,0.198361869234523,16.7238125275094,8.16354439452015,-16.6246315928921,8.46108719837194
2.10503566025502,-16.3242690830365,0.148562852882582,16.4728319359191,8.08785311507695,-16.3985505094778,8.31069739440082
